    1.500     2073
    1.515     2094
    1.530     2053
    1.545     2097
    1.560     2053
    1.575     2018
    1.590     1981
    1.605     1965
    1.620     1931
    1.635     1856
    1.650     1839
    1.665     1865
    1.680     1896
    1.695     1817
    1.710     1821
    1.725     1795
    1.740     1764
    1.755     1743
    1.770     1737
    1.785     1689
    1.800     1657
    1.815     1654
    1.830     1625
    1.845     1575
    1.860     1575
    1.875     1596
    1.890     1557
    1.905     1499
    1.920     1498
    1.935     1558
    1.950     1503
    1.965     1465
    1.980     1410
    1.995     1501
    2.010     1445
    2.025     1426
    2.040     1384
    2.055     1406
    2.070     1403
    2.085     1376
    2.100     1327
    2.115     1302
    2.130     1300
    2.145     1352
    2.160     1340
    2.175     1311
    2.190     1304
    2.205     1255
    2.220     1276
    2.235     1204
    2.250     1252
    2.265     1212
    2.280     1228
    2.295     1249
    2.310     1223
    2.325     1220
    2.340     1202
    2.355     1186
    2.370     1189
    2.385     1196
    2.400     1156
    2.415     1078
    2.430     1157
    2.445     1108
    2.460     1114
    2.475     1151
    2.490     1144
    2.505     1142
    2.520     1105
    2.535     1077
    2.550     1034
    2.565     1046
    2.580     1022
    2.595     1060
    2.610     1032
    2.625     1013
    2.640      980
    2.655     1011
    2.670      954
    2.685      935
    2.700     1006
    2.715     1001
    2.730      989
    2.745      961
    2.760      924
    2.775      968
    2.790      998
    2.805      960
    2.820     1019
    2.835      980
    2.850      942
    2.865      989
    2.880      982
    2.895      964
    2.910      959
    2.925      978
    2.940      960
    2.955      968
    2.970     1032
    2.985     1002
    3.000     1002
    3.015      983
    3.030     1033
    3.045      982
    3.060      976
    3.075     1000
    3.090      992
    3.105     1022
    3.120     1059
    3.135     1049
    3.150     1089
    3.165     1070
    3.180     1118
    3.195     1124
    3.210     1132
    3.225     1165
    3.240     1239
    3.255     1243
    3.270     1275
    3.285     1326
    3.300     1349
    3.315     1393
    3.330     1394
    3.345     1427
    3.360     1451
    3.375     1562
    3.390     1601
    3.405     1677
    3.420     1702
    3.435     1869
    3.450     1932
    3.465     1978
    3.480     2092
    3.495     2144
    3.510     2310
    3.525     2415
    3.540     2480
    3.555     2592
    3.570     2850
    3.585     2990
    3.600     3164
    3.615     3297
    3.630     3558
    3.645     3889
    3.660     4166
    3.675     4547
    3.690     4906
    3.705     5200
    3.720     5645
    3.735     6093
    3.750     6708
    3.765     7438
    3.780     8292
    3.795     9327
    3.810    10690
    3.825    12376
    3.840    13846
    3.855    14186
    3.870    13647
    3.885    12335
    3.900     9659
    3.915     6479
    3.930     4080
    3.945     2684
    3.960     1983
    3.975     1595
    3.990     1379
    4.005     1257
    4.020     1159
    4.035     1067
    4.050      960
    4.065      935
    4.080      917
    4.095      917
    4.110      834
    4.125      778
    4.140      757
    4.155      757
    4.170      745
    4.185      727
    4.200      687
    4.215      694
    4.230      636
    4.245      684
    4.260      602
    4.275      590
    4.290      629
    4.305      634
    4.320      643
    4.335      621
    4.350      563
    4.365      558
    4.380      603
    4.395      583
    4.410      582
    4.425      550
    4.440      565
    4.455      588
    4.470      578
    4.485      560
    4.500      527
    4.515      531
    4.530      560
    4.545      570
    4.560      517
    4.575      558
    4.590      528
    4.605      555
    4.620      513
    4.635      548
    4.650      539
    4.665      539
    4.680      543
    4.695      506
    4.710      515
    4.725      516
    4.740      490
    4.755      526
    4.770      544
    4.785      547
    4.800      533
    4.815      546
    4.830      522
    4.845      571
    4.860      531
    4.875      523
    4.890      528
    4.905      517
    4.920      534
    4.935      530
    4.950      554
    4.965      566
    4.980      596
    4.995      560
    5.010      620
    5.025      577
    5.040      577
    5.055      630
    5.070      643
    5.085      690
    5.100      678
    5.115      713
    5.130      730
    5.145      753
    5.160      765
    5.175      789
    5.190      833
    5.205      819
    5.220      883
    5.235      957
    5.250     1015
    5.265     1070
    5.280     1096
    5.295     1157
    5.310     1301
    5.325     1389
    5.340     1562
    5.355     1673
    5.370     1815
    5.385     1984
    5.400     2191
    5.415     2461
    5.430     2829
    5.445     3265
    5.460     3574
    5.475     3868
    5.490     3779
    5.505     3504
    5.520     2823
    5.535     2115
    5.550     1421
    5.565     1012
    5.580      804
    5.595      710
    5.610      611
    5.625      607
    5.640      621
    5.655      579
    5.670      553
    5.685      552
    5.700      578
    5.715      531
    5.730      528
    5.745      480
    5.760      470
    5.775      516
    5.790      483
    5.805      453
    5.820      485
    5.835      475
    5.850      472
    5.865      464
    5.880      462
    5.895      415
    5.910      472
    5.925      475
    5.940      432
    5.955      452
    5.970      456
    5.985      433
    6.000      389
    6.015      439
    6.030      448
    6.045      409
    6.060      443
    6.075      449
    6.090      459
    6.105      476
    6.120      464
    6.135      439
    6.150      396
    6.165      429
    6.180      429
    6.195      427
    6.210      429
    6.225      430
    6.240      477
    6.255      468
    6.270      443
    6.285      462
    6.300      451
    6.315      433
    6.330      442
    6.345      458
    6.360      476
    6.375      456
    6.390      460
    6.405      485
    6.420      498
    6.435      460
    6.450      442
    6.465      489
    6.480      491
    6.495      512
    6.510      524
    6.525      553
    6.540      551
    6.555      588
    6.570      611
    6.585      611
    6.600      671
    6.615      734
    6.630      714
    6.645      798
    6.660      889
    6.675      949
    6.690     1035
    6.705     1118
    6.720     1184
    6.735     1173
    6.750     1129
    6.765     1014
    6.780      833
    6.795      691
    6.810      607
    6.825      535
    6.840      525
    6.855      505
    6.870      483
    6.885      465
    6.900      436
    6.915      444
    6.930      432
    6.945      432
    6.960      440
    6.975      453
    6.990      453
    7.005      450
    7.020      425
    7.035      458
    7.050      446
    7.065      455
    7.080      449
    7.095      450
    7.110      414
    7.125      438
    7.140      435
    7.155      423
    7.170      454
    7.185      461
    7.200      432
    7.215      400
    7.230      427
    7.245      436
    7.260      425
    7.275      401
    7.290      448
    7.305      457
    7.320      451
    7.335      443
    7.350      435
    7.365      428
    7.380      453
    7.395      445
    7.410      456
    7.425      439
    7.440      427
    7.455      442
    7.470      475
    7.485      467
    7.500      463
    7.515      472
    7.530      462
    7.545      479
    7.560      516
    7.575      477
    7.590      487
    7.605      569
    7.620      573
    7.635      573
    7.650      599
    7.665      641
    7.680      718
    7.695      735
    7.710      816
    7.725      868
    7.740      975
    7.755     1041
    7.770     1067
    7.785     1123
    7.800     1025
    7.815      924
    7.830      808
    7.845      668
    7.860      574
    7.875      499
    7.890      451
    7.905      478
    7.920      447
    7.935      447
    7.950      426
    7.965      438
    7.980      428
    7.995      397
    8.010      390
    8.025      402
    8.040      413
    8.055      406
    8.070      408
    8.085      423
    8.100      425
    8.115      410
    8.130      404
    8.145      409
    8.160      411
    8.175      387
    8.190      411
    8.205      407
    8.220      407
    8.235      394
    8.250      422
    8.265      441
    8.280      416
    8.295      435
    8.310      419
    8.325      418
    8.340      410
    8.355      394
    8.370      419
    8.385      371
    8.400      414
    8.415      398
    8.430      410
    8.445      419
    8.460      429
    8.475      431
    8.490      429
    8.505      423
    8.520      429
    8.535      384
    8.550      391
    8.565      411
    8.580      441
    8.595      426
    8.610      446
    8.625      421
    8.640      435
    8.655      445
    8.670      456
    8.685      492
    8.700      490
    8.715      475
    8.730      492
    8.745      472
    8.760      448
    8.775      424
    8.790      423
    8.805      398
    8.820      384
    8.835      392
    8.850      393
    8.865      426
    8.880      405
    8.895      428
    8.910      399
    8.925      422
    8.940      443
    8.955      420
    8.970      415
    8.985      413
    9.000      405
    9.015      392
    9.030      383
    9.045      407
    9.060      438
    9.075      432
    9.090      427
    9.105      419
    9.120      408
    9.135      385
    9.150      392
    9.165      420
    9.180      412
    9.195      422
    9.210      442
    9.225      442
    9.240      412
    9.255      439
    9.270      438
    9.285      465
    9.300      469
    9.315      520
    9.330      544
    9.345      528
    9.360      606
    9.375      569
    9.390      615
    9.405      659
    9.420      704
    9.435      821
    9.450      868
    9.465      952
    9.480     1147
    9.495     1359
    9.510     1493
    9.525     1726
    9.540     1788
    9.555     1780
    9.570     1629
    9.585     1354
    9.600     1085
    9.615      842
    9.630      686
    9.645      571
    9.660      555
    9.675      523
    9.690      480
    9.705      467
    9.720      459
    9.735      441
    9.750      437
    9.765      433
    9.780      447
    9.795      418
    9.810      411
    9.825      431
    9.840      421
    9.855      409
    9.870      371
    9.885      409
    9.900      430
    9.915      442
    9.930      451
    9.945      410
    9.960      395
    9.975      393
    9.990      447
   10.005      428
   10.020      435
   10.035      436
   10.050      443
   10.065      453
   10.080      441
   10.095      444
   10.110      446
   10.125      435
   10.140      472
   10.155      482
   10.170      470
   10.185      493
   10.200      525
   10.215      555
   10.230      584
   10.245      644
   10.260      690
   10.275      788
   10.290      859
   10.305      882
   10.320      890
   10.335      858
   10.350      731
   10.365      692
   10.380      619
   10.395      512
   10.410      475
   10.425      460
   10.440      468
   10.455      450
   10.470      439
   10.485      424
   10.500      417
   10.515      422
   10.530      400
   10.545      438
   10.560      413
   10.575      402
   10.590      421
   10.605      411
   10.620      403
   10.635      381
   10.650      401
   10.665      394
   10.680      369
   10.695      420
   10.710      431
   10.725      411
   10.740      436
   10.755      414
   10.770      416
   10.785      413
   10.800      400
   10.815      402
   10.830      424
   10.845      434
   10.860      439
   10.875      431
   10.890      452
   10.905      479
   10.920      510
   10.935      526
   10.950      556
   10.965      563
   10.980      617
   10.995      755
   11.010      764
   11.025      812
   11.040      816
   11.055      804
   11.070      733
   11.085      649
   11.100      548
   11.115      507
   11.130      472
   11.145      449
   11.160      450
   11.175      380
   11.190      389
   11.205      398
   11.220      399
   11.235      391
   11.250      412
   11.265      421
   11.280      393
   11.295      384
   11.310      421
   11.325      391
   11.340      409
   11.355      401
   11.370      403
   11.385      402
   11.400      384
   11.415      399
   11.430      367
   11.445      399
   11.460      421
   11.475      424
   11.490      428
   11.505      411
   11.520      403
   11.535      388
   11.550      447
   11.565      449
   11.580      457
   11.595      499
   11.610      495
   11.625      534
   11.640      587
   11.655      662
   11.670      725
   11.685      800
   11.700      843
   11.715      834
   11.730      791
   11.745      745
   11.760      615
   11.775      556
   11.790      519
   11.805      467
   11.820      463
   11.835      430
   11.850      431
   11.865      405
   11.880      413
   11.895      404
   11.910      392
   11.925      393
   11.940      386
   11.955      377
   11.970      362
   11.985      364
   12.000      377
   12.015      365
   12.030      351
   12.045      400
   12.060      357
   12.075      388
   12.090      399
   12.105      396
   12.120      351
   12.135      365
   12.150      375
   12.165      387
   12.180      385
   12.195      419
   12.210      401
   12.225      394
   12.240      388
   12.255      408
   12.270      417
   12.285      409
   12.300      419
   12.315      443
   12.330      437
   12.345      436
   12.360      448
   12.375      455
   12.390      408
   12.405      418
   12.420      376
   12.435      373
   12.450      370
   12.465      386
   12.480      387
   12.495      369
   12.510      379
   12.525      388
   12.540      367
   12.555      332
   12.570      359
   12.585      375
   12.600      403
   12.615      361
   12.630      321
   12.645      344
   12.660      361
   12.675      387
   12.690      370
   12.705      388
   12.720      377
   12.735      360
   12.750      373
   12.765      368
   12.780      416
   12.795      418
   12.810      416
   12.825      415
   12.840      433
   12.855      445
   12.870      493
   12.885      516
   12.900      528
   12.915      579
   12.930      604
   12.945      656
   12.960      665
   12.975      677
   12.990      598
   13.005      509
   13.020      518
   13.035      462
   13.050      431
   13.065      400
   13.080      390
   13.095      394
   13.110      383
   13.125      352
   13.140      379
   13.155      366
   13.170      364
   13.185      358
   13.200      386
   13.215      375
   13.230      384
   13.245      364
   13.260      349
   13.275      375
   13.290      355
   13.305      348
   13.320      360
   13.335      382
   13.350      372
   13.365      393
   13.380      355
   13.395      369
   13.410      401
   13.425      412
   13.440      415
   13.455      400
   13.470      405
   13.485      449
   13.500      462
   13.515      483
   13.530      506
   13.545      477
   13.560      483
   13.575      471
   13.590      464
   13.605      443
   13.620      411
   13.635      382
   13.650      366
   13.665      379
   13.680      384
   13.695      356
   13.710      355
   13.725      350
   13.740      389
   13.755      374
   13.770      342
   13.785      379
   13.800      387
   13.815      362
   13.830      393
   13.845      403
   13.860      379
   13.875      364
   13.890      357
   13.905      391
   13.920      369
   13.935      406
   13.950      408
   13.965      422
   13.980      397
   13.995      436
   14.010      455
   14.025      485
   14.040      534
   14.055      562
   14.070      569
   14.085      574
   14.100      591
   14.115      590
   14.130      564
   14.145      506
   14.160      463
   14.175      422
   14.190      374
   14.205      389
   14.220      392
   14.235      350
   14.250      346
   14.265      381
   14.280      387
   14.295      373
   14.310      348
   14.325      356
   14.340      368
   14.355      355
   14.370      349
   14.385      334
   14.400      345
   14.415      347
   14.430      338
   14.445      349
   14.460      324
   14.475      375
   14.490      389
   14.505      374
   14.520      322
   14.535      314
   14.550      342
   14.565      336
   14.580      337
   14.595      348
   14.610      321
   14.625      341
   14.640      336
   14.655      349
   14.670      346
   14.685      353
   14.700      346
   14.715      336
   14.730      353
   14.745      350
   14.760      348
   14.775      338
   14.790      347
   14.805      374
   14.820      348
   14.835      327
   14.850      351
   14.865      359
   14.880      385
   14.895      375
   14.910      362
   14.925      364
   14.940      358
   14.955      351
   14.970      381
   14.985      371
   15.000      382
   15.015      351
   15.030      347
   15.045      350
   15.060      387
   15.075      368
   15.090      393
   15.105      387
   15.120      385
   15.135      415
   15.150      412
   15.165      423
   15.180      384
   15.195      371
   15.210      387
   15.225      380
   15.240      373
   15.255      392
   15.270      371
   15.285      353
   15.300      360
   15.315      381
   15.330      354
   15.345      351
   15.360      362
   15.375      359
   15.390      376
   15.405      352
   15.420      361
   15.435      331
   15.450      339
   15.465      335
   15.480      324
   15.495      344
   15.510      354
   15.525      345
   15.540      343
   15.555      352
   15.570      354
   15.585      343
   15.600      318
   15.615      342
   15.630      363
   15.645      346
   15.660      357
   15.675      375
   15.690      377
   15.705      339
   15.720      321
   15.735      360
   15.750      375
   15.765      368
   15.780      342
   15.795      357
   15.810      375
   15.825      337
   15.840      349
   15.855      350
   15.870      370
   15.885      345
   15.900      338
   15.915      326
   15.930      350
   15.945      346
   15.960      346
   15.975      335
   15.990      327
   16.005      380
   16.020      381
   16.035      374
   16.050      373
   16.065      364
   16.080      398
   16.095      419
   16.110      407
   16.125      402
   16.140      389
   16.155      436
   16.170      407
   16.185      399
   16.200      380
   16.215      387
   16.230      387
   16.245      363
   16.260      372
   16.275      373
   16.290      346
   16.305      392
   16.320      365
   16.335      359
   16.350      347
   16.365      370
   16.380      372
   16.395      370
   16.410      352
   16.425      361
   16.440      362
   16.455      347
   16.470      342
   16.485      370
   16.500      357
   16.515      364
   16.530      400
   16.545      403
   16.560      392
   16.575      397
   16.590      405
   16.605      431
   16.620      401
   16.635      390
   16.650      418
   16.665      385
   16.680      372
   16.695      370
   16.710      362
   16.725      372
   16.740      361
   16.755      364
   16.770      365
   16.785      377
   16.800      394
   16.815      373
   16.830      361
   16.845      367
   16.860      356
   16.875      378
   16.890      374
   16.905      362
   16.920      346
   16.935      383
   16.950      397
   16.965      434
   16.980      396
   16.995      401
   17.010      456
   17.025      466
   17.040      504
   17.055      531
   17.070      520
   17.085      524
   17.100      529
   17.115      509
   17.130      475
   17.145      454
   17.160      441
   17.175      465
   17.190      424
   17.205      384
   17.220      380
   17.235      384
   17.250      358
   17.265      377
   17.280      367
   17.295      392
   17.310      399
   17.325      377
   17.340      355
   17.355      359
   17.370      371
   17.385      350
   17.400      385
   17.415      356
   17.430      378
   17.445      387
   17.460      390
   17.475      398
   17.490      415
   17.505      396
   17.520      371
   17.535      381
   17.550      383
   17.565      373
   17.580      372
   17.595      353
   17.610      351
   17.625      343
   17.640      371
   17.655      351
   17.670      357
   17.685      351
   17.700      356
   17.715      357
   17.730      348
   17.745      337
   17.760      343
   17.775      335
   17.790      358
   17.805      351
   17.820      346
   17.835      354
   17.850      386
   17.865      374
   17.880      380
   17.895      403
   17.910      396
   17.925      365
   17.940      396
   17.955      407
   17.970      404
   17.985      378
   18.000      412
   18.015      390
   18.030      365
   18.045      356
   18.060      339
   18.075      362
   18.090      366
   18.105      369
   18.120      387
   18.135      355
   18.150      375
   18.165      374
   18.180      364
   18.195      354
   18.210      339
   18.225      358
   18.240      371
   18.255      374
   18.270      365
   18.285      394
   18.300      353
   18.315      381
   18.330      394
   18.345      378
   18.360      393
   18.375      388
   18.390      378
   18.405      419
   18.420      399
   18.435      374
   18.450      380
   18.465      377
   18.480      395
   18.495      392
   18.510      347
   18.525      367
   18.540      349
   18.555      352
   18.570      357
   18.585      366
   18.600      368
   18.615      349
   18.630      353
   18.645      386
   18.660      363
   18.675      363
   18.690      334
   18.705      345
   18.720      377
   18.735      354
   18.750      374
   18.765      367
   18.780      368
   18.795      379
   18.810      361
   18.825      383
   18.840      394
   18.855      360
   18.870      359
   18.885      391
   18.900      399
   18.915      408
   18.930      406
   18.945      463
   18.960      487
   18.975      514
   18.990      483
   19.005      447
   19.020      408
   19.035      403
   19.050      395
   19.065      401
   19.080      378
   19.095      376
   19.110      356
   19.125      365
   19.140      356
   19.155      373
   19.170      360
   19.185      369
   19.200      372
   19.215      348
   19.230      383
   19.245      379
   19.260      369
   19.275      364
   19.290      381
   19.305      380
   19.320      338
   19.335      315
   19.350      342
   19.365      342
   19.380      364
   19.395      380
   19.410      355
   19.425      339
   19.440      378
   19.455      382
   19.470      344
   19.485      364
   19.500      386
   19.515      382
   19.530      373
   19.545      400
   19.560      378
   19.575      359
   19.590      390
   19.605      412
   19.620      410
   19.635      405
   19.650      372
   19.665      384
   19.680      383
   19.695      373
   19.710      398
   19.725      387
   19.740      375
   19.755      361
   19.770      345
   19.785      347
   19.800      337
   19.815      367
   19.830      375
   19.845      343
   19.860      355
   19.875      381
   19.890      373
   19.905      365
   19.920      345
   19.935      384
   19.950      356
   19.965      376
   19.980      359
   19.995      369
   20.010      359
   20.025      368
   20.040      355
   20.055      352
   20.070      366
   20.085      356
   20.100      342
   20.115      356
   20.130      360
   20.145      374
   20.160      332
   20.175      359
   20.190      366
   20.205      360
   20.220      336
   20.235      364
   20.250      365
   20.265      391
   20.280      395
   20.295      436
   20.310      411
   20.325      424
   20.340      446
   20.355      475
   20.370      506
   20.385      505
   20.400      479
   20.415      492
   20.430      494
   20.445      466
   20.460      413
   20.475      403
   20.490      409
   20.505      392
   20.520      370
   20.535      405
   20.550      382
   20.565      339
   20.580      385
   20.595      371
   20.610      352
   20.625      364
   20.640      366
   20.655      364
   20.670      374
   20.685      407
   20.700      366
   20.715      385
   20.730      376
   20.745      344
   20.760      367
   20.775      345
   20.790      382
   20.805      368
   20.820      345
   20.835      355
   20.850      395
   20.865      364
   20.880      353
   20.895      352
   20.910      345
   20.925      334
   20.940      344
   20.955      351
   20.970      349
   20.985      391
   21.000      356
   21.015      373
   21.030      368
   21.045      371
   21.060      346
   21.075      370
   21.090      376
   21.105      353
   21.120      359
   21.135      341
   21.150      366
   21.165      379
   21.180      369
   21.195      357
   21.210      353
   21.225      364
   21.240      375
   21.255      348
   21.270      343
   21.285      350
   21.300      359
   21.315      372
   21.330      359
   21.345      337
   21.360      373
   21.375      327
   21.390      319
   21.405      358
   21.420      371
   21.435      372
   21.450      343
   21.465      360
   21.480      372
   21.495      372
   21.510      368
   21.525      380
   21.540      370
   21.555      356
   21.570      352
   21.585      379
   21.600      349
   21.615      349
   21.630      361
   21.645      370
   21.660      394
   21.675      374
   21.690      384
   21.705      393
   21.720      359
   21.735      377
   21.750      397
   21.765      366
   21.780      363
   21.795      401
   21.810      409
   21.825      427
   21.840      399
   21.855      408
   21.870      397
   21.885      438
   21.900      422
   21.915      424
   21.930      413
   21.945      415
   21.960      406
   21.975      399
   21.990      393
   22.005      362
   22.020      366
   22.035      398
   22.050      368
   22.065      372
   22.080      365
   22.095      344
   22.110      388
   22.125      397
   22.140      376
   22.155      415
   22.170      389
   22.185      412
   22.200      383
   22.215      410
   22.230      421
   22.245      395
   22.260      411
   22.275      414
   22.290      400
   22.305      361
   22.320      348
   22.335      361
   22.350      395
   22.365      372
   22.380      359
   22.395      368
   22.410      383
   22.425      396
   22.440      380
   22.455      394
   22.470      429
   22.485      453
   22.500      468
   22.515      459
   22.530      489
   22.545      488
   22.560      496
   22.575      533
   22.590      502
   22.605      504
   22.620      528
   22.635      471
   22.650      479
   22.665      434
   22.680      462
   22.695      435
   22.710      401
   22.725      399
   22.740      403
   22.755      398
   22.770      395
   22.785      404
   22.800      412
   22.815      425
   22.830      434
   22.845      447
   22.860      452
   22.875      496
   22.890      475
   22.905      501
   22.920      557
   22.935      516
   22.950      484
   22.965      510
   22.980      510
   22.995      474
   23.010      466
   23.025      430
   23.040      423
   23.055      430
   23.070      437
   23.085      418
   23.100      411
   23.115      429
   23.130      427
   23.145      429
   23.160      418
   23.175      398
   23.190      424
   23.205      419
   23.220      369
   23.235      411
   23.250      407
   23.265      397
   23.280      414
   23.295      412
   23.310      388
   23.325      390
   23.340      385
   23.355      372
   23.370      383
   23.385      379
   23.400      359
   23.415      360
   23.430      354
   23.445      365
   23.460      353
   23.475      380
   23.490      386
   23.505      366
   23.520      351
   23.535      375
   23.550      379
   23.565      376
   23.580      373
   23.595      380
   23.610      384
   23.625      398
   23.640      376
   23.655      352
   23.670      377
   23.685      375
   23.700      358
   23.715      348
   23.730      330
   23.745      366
   23.760      360
   23.775      350
   23.790      347
   23.805      382
   23.820      389
   23.835      383
   23.850      384
   23.865      384
   23.880      388
   23.895      389
   23.910      398
   23.925      407
   23.940      390
   23.955      397
   23.970      379
   23.985      417
   24.000      377
   24.015      384
   24.030      409
   24.045      393
   24.060      370
   24.075      379
   24.090      339
   24.105      354
   24.120      331
   24.135      354
   24.150      374
   24.165      374
   24.180      370
   24.195      353
   24.210      368
   24.225      357
   24.240      346
   24.255      351
   24.270      356
   24.285      360
   24.300      364
   24.315      355
   24.330      351
   24.345      336
   24.360      343
   24.375      366
   24.390      351
   24.405      335
   24.420      339
   24.435      359
   24.450      382
   24.465      367
   24.480      381
   24.495      351
   24.510      345
   24.525      363
   24.540      408
   24.555      392
   24.570      375
   24.585      380
   24.600      362
   24.615      339
   24.630      350
   24.645      364
   24.660      380
   24.675      370
   24.690      361
   24.705      364
   24.720      373
   24.735      371
   24.750      361
   24.765      333
   24.780      335
   24.795      336
   24.810      360
   24.825      352
   24.840      345
   24.855      353
   24.870      373
   24.885      365
   24.900      352
   24.915      350
   24.930      350
   24.945      376
   24.960      390
   24.975      370
   24.990      334
   25.005      354
   25.020      342
   25.035      342
   25.050      364
   25.065      375
   25.080      348
   25.095      367
   25.110      356
   25.125      358
   25.140      364
   25.155      361
   25.170      379
   25.185      369
   25.200      344
   25.215      354
   25.230      347
   25.245      363
   25.260      411
   25.275      363
   25.290      355
   25.305      366
   25.320      363
   25.335      360
   25.350      340
   25.365      352
   25.380      359
   25.395      364
   25.410      333
   25.425      347
   25.440      354
   25.455      347
   25.470      348
   25.485      332
   25.500      334
   25.515      347
   25.530      369
   25.545      368
   25.560      369
   25.575      351
   25.590      348
   25.605      373
   25.620      363
   25.635      349
   25.650      358
   25.665      366
   25.680      356
   25.695      367
   25.710      346
   25.725      395
   25.740      381
   25.755      410
   25.770      394
   25.785      414
   25.800      445
   25.815      447
   25.830      438
   25.845      455
   25.860      452
   25.875      457
   25.890      449
   25.905      427
   25.920      435
   25.935      386
   25.950      358
   25.965      388
   25.980      385
   25.995      397
   26.010      359
   26.025      360
   26.040      389
   26.055      361
   26.070      360
   26.085      353
   26.100      358
   26.115      356
   26.130      347
   26.145      350
   26.160      340
   26.175      379
   26.190      371
   26.205      377
   26.220      359
   26.235      341
   26.250      361
   26.265      370
   26.280      341
   26.295      337
   26.310      354
   26.325      362
   26.340      343
   26.355      355
   26.370      356
   26.385      352
   26.400      341
   26.415      365
   26.430      356
   26.445      357
   26.460      372
   26.475      353
   26.490      361
   26.505      382
   26.520      354
   26.535      363
   26.550      365
   26.565      346
   26.580      350
   26.595      352
   26.610      340
   26.625      332
   26.640      351
   26.655      337
   26.670      329
   26.685      323
   26.700      324
   26.715      327
   26.730      336
   26.745      343
   26.760      361
   26.775      346
   26.790      324
   26.805      350
   26.820      341
   26.835      351
   26.850      313
   26.865      335
   26.880      343
   26.895      374
   26.910      368
   26.925      362
   26.940      355
   26.955      373
   26.970      335
   26.985      373
   27.000      371
   27.015      372
   27.030      383
   27.045      382
   27.060      380
   27.075      361
   27.090      343
   27.105      371
   27.120      370
   27.135      371
   27.150      374
   27.165      363
   27.180      342
   27.195      314
   27.210      312
   27.225      312
   27.240      323
   27.255      341
   27.270      351
   27.285      325
   27.300      349
   27.315      334
   27.330      361
   27.345      348
   27.360      353
   27.375      340
   27.390      322
   27.405      327
   27.420      308
   27.435      337
   27.450      320
   27.465      307
   27.480      338
   27.495      329
   27.510      332
   27.525      350
   27.540      334
   27.555      332
   27.570      349
   27.585      367
   27.600      337
   27.615      331
   27.630      358
   27.645      338
   27.660      349
   27.675      342
   27.690      369
   27.705      355
   27.720      352
   27.735      347
   27.750      374
   27.765      328
   27.780      332
   27.795      359
   27.810      358
   27.825      357
   27.840      352
   27.855      329
   27.870      356
   27.885      364
   27.900      368
   27.915      401
   27.930      370
   27.945      419
   27.960      401
   27.975      428
   27.990      415
   28.005      421
   28.020      395
   28.035      390
   28.050      379
   28.065      392
   28.080      415
   28.095      400
   28.110      392
   28.125      369
   28.140      367
   28.155      370
   28.170      391
   28.185      386
   28.200      362
   28.215      373
   28.230      359
   28.245      382
   28.260      363
   28.275      371
   28.290      355
   28.305      351
   28.320      342
   28.335      334
   28.350      329
   28.365      336
   28.380      352
   28.395      368
   28.410      366
   28.425      385
   28.440      377
   28.455      368
   28.470      370
   28.485      375
   28.500      386
   28.515      356
   28.530      397
   28.545      387
   28.560      347
   28.575      346
   28.590      360
   28.605      355
   28.620      345
   28.635      337
   28.650      323
   28.665      322
   28.680      329
   28.695      337
   28.710      312
   28.725      296
   28.740      343
   28.755      340
   28.770      324
   28.785      322
   28.800      328
   28.815      320
   28.830      335
   28.845      361
   28.860      352
   28.875      360
   28.890      343
   28.905      359
   28.920      362
   28.935      387
   28.950      410
   28.965      397
   28.980      408
   28.995      414
   29.010      401
   29.025      384
   29.040      359
   29.055      363
   29.070      357
   29.085      346
   29.100      328
   29.115      357
   29.130      334
   29.145      321
   29.160      320
   29.175      347
   29.190      333
   29.205      347
   29.220      340
   29.235      347
   29.250      335
   29.265      347
   29.280      352
   29.295      350
   29.310      321
   29.325      325
   29.340      345
   29.355      361
   29.370      360
   29.385      355
   29.400      357
   29.415      331
   29.430      335
   29.445      360
   29.460      344
   29.475      332
   29.490      369
   29.505      357
   29.520      322
   29.535      333
   29.550      346
   29.565      325
   29.580      320
   29.595      323
   29.610      313
   29.625      307
   29.640      325
   29.655      315
   29.670      306
   29.685      322
   29.700      324
   29.715      329
   29.730      331
   29.745      321
   29.760      333
   29.775      328
   29.790      314
   29.805      354
   29.820      359
   29.835      339
   29.850      335
   29.865      324
   29.880      322
   29.895      341
   29.910      333
   29.925      339
   29.940      332
   29.955      309
   29.970      314
   29.985      298
   30.000      319
   30.015      318
   30.030      309
   30.045      332
   30.060      334
   30.075      325
   30.090      306
   30.105      318
   30.120      328
   30.135      343
   30.150      329
   30.165      327
   30.180      315
   30.195      305
   30.210      310
   30.225      331
   30.240      314
   30.255      341
   30.270      334
   30.285      303
   30.300      314
   30.315      323
   30.330      303
   30.345      318
   30.360      295
   30.375      321
   30.390      347
   30.405      331
   30.420      319
   30.435      351
   30.450      329
   30.465      291
   30.480      308
   30.495      315
   30.510      316
   30.525      338
   30.540      332
   30.555      329
   30.570      333
   30.585      310
   30.600      299
   30.615      316
   30.630      341
   30.645      346
   30.660      364
   30.675      325
   30.690      319
   30.705      333
   30.720      329
   30.735      318
   30.750      312
   30.765      336
   30.780      331
   30.795      316
   30.810      293
   30.825      322
   30.840      328
   30.855      308
   30.870      314
   30.885      322
   30.900      301
   30.915      310
   30.930      323
   30.945      299
   30.960      321
   30.975      314
   30.990      297
   31.005      335
   31.020      328
   31.035      315
   31.050      309
   31.065      321
   31.080      291
   31.095      304
   31.110      338
   31.125      318
   31.140      319
   31.155      315
   31.170      293
   31.185      273
   31.200      279
   31.215      288
   31.230      287
   31.245      306
   31.260      333
   31.275      325
   31.290      317
   31.305      303
   31.320      326
   31.335      302
   31.350      316
   31.365      365
   31.380      364
   31.395      324
   31.410      325
   31.425      315
   31.440      311
   31.455      339
   31.470      325
   31.485      292
   31.500      294
   31.515      307
   31.530      300
   31.545      307
   31.560      312
   31.575      309
   31.590      320
   31.605      308
   31.620      317
   31.635      310
   31.650      337
   31.665      298
   31.680      304
   31.695      322
   31.710      303
   31.725      319
   31.740      349
   31.755      346
   31.770      350
   31.785      349
   31.800      338
   31.815      344
   31.830      342
   31.845      334
   31.860      334
   31.875      324
   31.890      312
   31.905      324
   31.920      317
   31.935      327
   31.950      342
   31.965      333
   31.980      333
   31.995      388
   32.010      422
   32.025      429
   32.040      403
   32.055      455
   32.070      449
   32.085      455
   32.100      473
   32.115      437
   32.130      467
   32.145      401
   32.160      394
   32.175      372
   32.190      359
   32.205      348
   32.220      325
   32.235      313
   32.250      310
   32.265      276
   32.280      281
   32.295      315
   32.310      306
   32.325      270
   32.340      314
   32.355      337
   32.370      323
   32.385      291
   32.400      326
   32.415      316
   32.430      298
   32.445      292
   32.460      308
   32.475      322
   32.490      305
   32.505      300
   32.520      316
   32.535      301
   32.550      303
   32.565      300
   32.580      320
   32.595      299
   32.610      290
   32.625      289
   32.640      333
   32.655      309
   32.670      284
   32.685      285
   32.700      313
   32.715      299
   32.730      300
   32.745      326
   32.760      315
   32.775      310
   32.790      276
   32.805      310
   32.820      305
   32.835      322
   32.850      331
   32.865      326
   32.880      292
   32.895      291
   32.910      291
   32.925      320
   32.940      319
   32.955      308
   32.970      303
   32.985      305
   33.000      312
   33.015      318
   33.030      308
   33.045      311
   33.060      304
   33.075      313
   33.090      315
   33.105      293
   33.120      293
   33.135      290
   33.150      300
   33.165      271
   33.180      282
   33.195      305
   33.210      269
   33.225      265
   33.240      310
   33.255      303
   33.270      296
   33.285      271
   33.300      292
   33.315      320
   33.330      288
   33.345      299
   33.360      308
   33.375      305
   33.390      287
   33.405      286
   33.420      296
   33.435      301
   33.450      269
   33.465      299
   33.480      277
   33.495      285
   33.510      292
   33.525      315
   33.540      323
   33.555      307
   33.570      328
   33.585      320
   33.600      323
   33.615      313
   33.630      285
   33.645      291
   33.660      286
   33.675      287
   33.690      305
   33.705      335
   33.720      322
   33.735      341
   33.750      338
   33.765      330
   33.780      357
   33.795      350
   33.810      379
   33.825      381
   33.840      394
   33.855      385
   33.870      371
   33.885      344
   33.900      349
   33.915      332
   33.930      321
   33.945      322
   33.960      333
   33.975      340
   33.990      333
   34.005      303
   34.020      298
   34.035      293
   34.050      314
   34.065      313
   34.080      290
   34.095      289
   34.110      299
   34.125      306
   34.140      317
   34.155      305
   34.170      316
   34.185      286
   34.200      313
   34.215      305
   34.230      295
   34.245      289
   34.260      289
   34.275      278
   34.290      290
   34.305      308
   34.320      268
   34.335      275
   34.350      279
   34.365      305
   34.380      301
   34.395      310
   34.410      291
   34.425      292
   34.440      313
   34.455      287
   34.470      292
   34.485      298
   34.500      303
   34.515      288
   34.530      268
   34.545      276
   34.560      291
   34.575      289
   34.590      303
   34.605      291
   34.620      305
   34.635      298
   34.650      278
   34.665      276
   34.680      308
   34.695      306
   34.710      321
   34.725      302
   34.740      316
   34.755      305
   34.770      287
   34.785      294
   34.800      286
   34.815      290
   34.830      297
   34.845      298
   34.860      304
   34.875      315
   34.890      289
   34.905      293
   34.920      305
   34.935      300
   34.950      289
   34.965      306
   34.980      312
   34.995      298
   35.010      280
   35.025      272
   35.040      288
   35.055      278
   35.070      289
   35.085      284
   35.100      274
   35.115      270
   35.130      293
   35.145      292
   35.160      284
   35.175      303
   35.190      273
   35.205      306
   35.220      303
   35.235      294
   35.250      296
   35.265      295
   35.280      278
   35.295      292
   35.310      274
   35.325      280
   35.340      287
   35.355      302
   35.370      296
   35.385      290
   35.400      289
   35.415      295
   35.430      290
   35.445      268
   35.460      295
   35.475      318
   35.490      300
   35.505      309
   35.520      309
   35.535      276
   35.550      259
   35.565      261
   35.580      290
   35.595      280
   35.610      271
   35.625      250
   35.640      280
   35.655      285
   35.670      313
   35.685      294
   35.700      309
   35.715      293
   35.730      290
   35.745      292
   35.760      288
   35.775      284
   35.790      314
   35.805      299
   35.820      279
   35.835      264
   35.850      279
   35.865      292
   35.880      289
   35.895      292
   35.910      270
   35.925      287
   35.940      278
   35.955      285
   35.970      281
   35.985      308
   36.000      294
   36.015      296
   36.030      290
   36.045      285
   36.060      288
   36.075      287
   36.090      299
   36.105      277
   36.120      283
   36.135      306
   36.150      325
   36.165      266
   36.180      261
   36.195      281
   36.210      275
   36.225      291
   36.240      298
   36.255      303
   36.270      279
   36.285      303
   36.300      280
   36.315      279
   36.330      307
   36.345      277
   36.360      290
   36.375      279
   36.390      287
   36.405      287
   36.420      300
   36.435      309
   36.450      270
   36.465      284
   36.480      288
   36.495      281
   36.510      273
   36.525      280
   36.540      302
   36.555      296
   36.570      271
   36.585      275
   36.600      279
   36.615      303
   36.630      277
   36.645      277
   36.660      286
   36.675      317
   36.690      320
   36.705      294
   36.720      287
   36.735      280
   36.750      280
   36.765      272
   36.780      287
   36.795      278
   36.810      312
   36.825      271
   36.840      282
   36.855      300
   36.870      299
   36.885      286
   36.900      296
   36.915      299
   36.930      270
   36.945      274
   36.960      285
   36.975      262
   36.990      300
   37.005      305
   37.020      309
   37.035      303
   37.050      292
   37.065      323
   37.080      286
   37.095      283
   37.110      321
   37.125      306
   37.140      287
   37.155      294
   37.170      293
   37.185      313
   37.200      293
   37.215      299
   37.230      300
   37.245      270
   37.260      308
   37.275      260
   37.290      302
   37.305      285
   37.320      294
   37.335      286
   37.350      287
   37.365      256
   37.380      273
   37.395      273
   37.410      294
   37.425      285
   37.440      295
   37.455      275
   37.470      281
   37.485      260
   37.500      297
   37.515      278
   37.530      305
   37.545      299
   37.560      326
   37.575      264
   37.590      286
   37.605      289
   37.620      283
   37.635      273
   37.650      277
   37.665      284
   37.680      295
   37.695      270
   37.710      272
   37.725      280
   37.740      289
   37.755      281
   37.770      288
   37.785      310
   37.800      303
   37.815      297
   37.830      263
   37.845      284
   37.860      300
   37.875      290
   37.890      284
   37.905      271
   37.920      301
   37.935      293
   37.950      297
   37.965      275
   37.980      297
   37.995      281
   38.010      293
   38.025      282
   38.040      271
   38.055      279
   38.070      286
   38.085      270
   38.100      274
   38.115      256
   38.130      275
   38.145      295
   38.160      274
   38.175      266
   38.190      286
   38.205      288
   38.220      260
   38.235      276
   38.250      283
   38.265      267
   38.280      297
   38.295      278
   38.310      252
   38.325      264
   38.340      295
   38.355      292
   38.370      302
   38.385      277
   38.400      273
   38.415      294
   38.430      285
   38.445      282
   38.460      268
   38.475      285
   38.490      293
   38.505      297
   38.520      302
   38.535      297
   38.550      315
   38.565      317
   38.580      297
   38.595      307
   38.610      290
   38.625      284
   38.640      275
   38.655      307
   38.670      311
   38.685      262
   38.700      273
   38.715      281
   38.730      284
   38.745      272
   38.760      282
   38.775      280
   38.790      272
   38.805      260
   38.820      275
   38.835      289
   38.850      272
   38.865      259
   38.880      256
   38.895      248
   38.910      250
   38.925      270
   38.940      269
   38.955      265
   38.970      284
   38.985      267
   39.000      297
   39.015      267
   39.030      300
   39.045      278
   39.060      281
   39.075      276
   39.090      289
   39.105      253
   39.120      275
   39.135      278
   39.150      272
   39.165      284
   39.180      274
   39.195      264
   39.210      274
   39.225      291
   39.240      288
   39.255      266
   39.270      271
   39.285      275
   39.300      278
   39.315      291
   39.330      287
   39.345      318
   39.360      268
   39.375      285
   39.390      269
   39.405      287
   39.420      270
   39.435      261
   39.450      296
   39.465      282
   39.480      276
   39.495      270
   39.510      281
   39.525      280
   39.540      253
   39.555      275
   39.570      252
   39.585      264
   39.600      283
   39.615      278
   39.630      290
   39.645      289
   39.660      263
   39.675      291
   39.690      297
   39.705      255
   39.720      257
   39.735      268
   39.750      245
   39.765      246
   39.780      267
   39.795      268
   39.810      267
   39.825      286
   39.840      292
   39.855      304
   39.870      258
   39.885      274
   39.900      265
   39.915      281
   39.930      292
   39.945      277
   39.960      267
   39.975      277
   39.990      283
