    1.500      591
    1.515      608
    1.530      574
    1.545      570
    1.560      563
    1.575      629
    1.590      603
    1.605      570
    1.620      588
    1.635      585
    1.650      583
    1.665      563
    1.680      547
    1.695      562
    1.710      536
    1.725      537
    1.740      543
    1.755      554
    1.770      545
    1.785      566
    1.800      594
    1.815      540
    1.830      545
    1.845      550
    1.860      561
    1.875      543
    1.890      543
    1.905      543
    1.920      533
    1.935      533
    1.950      533
    1.965      530
    1.980      544
    1.995      545
    2.010      552
    2.025      535
    2.040      543
    2.055      542
    2.070      497
    2.085      501
    2.100      557
    2.115      564
    2.130      514
    2.145      518
    2.160      553
    2.175      514
    2.190      558
    2.205      592
    2.220      609
    2.235      578
    2.250      550
    2.265      557
    2.280      586
    2.295      570
    2.310      563
    2.325      573
    2.340      535
    2.355      558
    2.370      563
    2.385      564
    2.400      575
    2.415      602
    2.430      596
    2.445      570
    2.460      580
    2.475      599
    2.490      619
    2.505      634
    2.520      603
    2.535      641
    2.550      628
    2.565      644
    2.580      664
    2.595      668
    2.610      662
    2.625      676
    2.640      713
    2.655      675
    2.670      710
    2.685      686
    2.700      715
    2.715      737
    2.730      701
    2.745      751
    2.760      769
    2.775      745
    2.790      801
    2.805      756
    2.820      760
    2.835      822
    2.850      844
    2.865      824
    2.880      889
    2.895      876
    2.910      896
    2.925      977
    2.940      896
    2.955      904
    2.970      957
    2.985      947
    3.000      975
    3.015      999
    3.030     1046
    3.045     1095
    3.060     1176
    3.075     1117
    3.090     1138
    3.105     1134
    3.120     1220
    3.135     1286
    3.150     1304
    3.165     1296
    3.180     1257
    3.195     1295
    3.210     1389
    3.225     1445
    3.240     1464
    3.255     1483
    3.270     1588
    3.285     1614
    3.300     1621
    3.315     1753
    3.330     1734
    3.345     1779
    3.360     1795
    3.375     1907
    3.390     1958
    3.405     2049
    3.420     2141
    3.435     2137
    3.450     2274
    3.465     2323
    3.480     2383
    3.495     2519
    3.510     2619
    3.525     2720
    3.540     2851
    3.555     3003
    3.570     3113
    3.585     3304
    3.600     3435
    3.615     3656
    3.630     3831
    3.645     4121
    3.660     4316
    3.675     4550
    3.690     4843
    3.705     5108
    3.720     5536
    3.735     6056
    3.750     6607
    3.765     7365
    3.780     8028
    3.795     9156
    3.810    10918
    3.825    12766
    3.840    13698
    3.855    12473
    3.870     9945
    3.885     7249
    3.900     4709
    3.915     2729
    3.930     1477
    3.945      909
    3.960      663
    3.975      549
    3.990      511
    4.005      421
    4.020      407
    4.035      380
    4.050      378
    4.065      387
    4.080      384
    4.095      357
    4.110      367
    4.125      362
    4.140      353
    4.155      337
    4.170      334
    4.185      333
    4.200      325
    4.215      309
    4.230      327
    4.245      332
    4.260      316
    4.275      315
    4.290      308
    4.305      313
    4.320      314
    4.335      347
    4.350      344
    4.365      365
    4.380      331
    4.395      328
    4.410      346
    4.425      342
    4.440      364
    4.455      367
    4.470      383
    4.485      359
    4.500      361
    4.515      335
    4.530      358
    4.545      359
    4.560      370
    4.575      375
    4.590      395
    4.605      405
    4.620      417
    4.635      404
    4.650      433
    4.665      422
    4.680      497
    4.695      499
    4.710      519
    4.725      502
    4.740      488
    4.755      478
    4.770      422
    4.785      421
    4.800      409
    4.815      389
    4.830      413
    4.845      373
    4.860      381
    4.875      419
    4.890      401
    4.905      404
    4.920      418
    4.935      439
    4.950      437
    4.965      432
    4.980      461
    4.995      479
    5.010      495
    5.025      459
    5.040      508
    5.055      535
    5.070      553
    5.085      548
    5.100      538
    5.115      599
    5.130      619
    5.145      637
    5.160      607
    5.175      665
    5.190      658
    5.205      668
    5.220      733
    5.235      746
    5.250      810
    5.265      851
    5.280      910
    5.295      944
    5.310      993
    5.325     1058
    5.340     1174
    5.355     1161
    5.370     1301
    5.385     1464
    5.400     1620
    5.415     1826
    5.430     2123
    5.445     2422
    5.460     2579
    5.475     2528
    5.490     2113
    5.505     1663
    5.520     1183
    5.535      793
    5.550      520
    5.565      387
    5.580      331
    5.595      308
    5.610      299
    5.625      277
    5.640      276
    5.655      262
    5.670      263
    5.685      250
    5.700      281
    5.715      287
    5.730      280
    5.745      289
    5.760      271
    5.775      265
    5.790      262
    5.805      258
    5.820      288
    5.835      292
    5.850      270
    5.865      248
    5.880      276
    5.895      267
    5.910      275
    5.925      270
    5.940      274
    5.955      264
    5.970      286
    5.985      255
    6.000      267
    6.015      261
    6.030      264
    6.045      263
    6.060      266
    6.075      257
    6.090      263
    6.105      280
    6.120      294
    6.135      290
    6.150      288
    6.165      284
    6.180      276
    6.195      283
    6.210      267
    6.225      263
    6.240      272
    6.255      284
    6.270      279
    6.285      266
    6.300      262
    6.315      306
    6.330      324
    6.345      305
    6.360      301
    6.375      317
    6.390      304
    6.405      312
    6.420      330
    6.435      302
    6.450      320
    6.465      324
    6.480      340
    6.495      347
    6.510      327
    6.525      368
    6.540      388
    6.555      402
    6.570      410
    6.585      398
    6.600      435
    6.615      455
    6.630      493
    6.645      531
    6.660      561
    6.675      663
    6.690      735
    6.705      761
    6.720      749
    6.735      674
    6.750      524
    6.765      439
    6.780      365
    6.795      331
    6.810      264
    6.825      266
    6.840      273
    6.855      249
    6.870      246
    6.885      265
    6.900      257
    6.915      223
    6.930      233
    6.945      254
    6.960      243
    6.975      236
    6.990      233
    7.005      231
    7.020      224
    7.035      231
    7.050      248
    7.065      259
    7.080      258
    7.095      250
    7.110      264
    7.125      257
    7.140      271
    7.155      244
    7.170      248
    7.185      228
    7.200      256
    7.215      269
    7.230      248
    7.245      255
    7.260      268
    7.275      251
    7.290      244
    7.305      236
    7.320      266
    7.335      257
    7.350      282
    7.365      297
    7.380      279
    7.395      279
    7.410      275
    7.425      281
    7.440      309
    7.455      307
    7.470      304
    7.485      300
    7.500      307
    7.515      323
    7.530      341
    7.545      361
    7.560      363
    7.575      382
    7.590      408
    7.605      414
    7.620      416
    7.635      446
    7.650      458
    7.665      477
    7.680      539
    7.695      573
    7.710      659
    7.725      726
    7.740      855
    7.755      888
    7.770      854
    7.785      813
    7.800      657
    7.815      511
    7.830      385
    7.845      321
    7.860      266
    7.875      237
    7.890      243
    7.905      240
    7.920      227
    7.935      217
    7.950      233
    7.965      201
    7.980      229
    7.995      240
    8.010      243
    8.025      247
    8.040      232
    8.055      237
    8.070      240
    8.085      248
    8.100      251
    8.115      243
    8.130      228
    8.145      242
    8.160      253
    8.175      240
    8.190      261
    8.205      257
    8.220      249
    8.235      274
    8.250      275
    8.265      275
    8.280      240
    8.295      247
    8.310      223
    8.325      225
    8.340      236
    8.355      223
    8.370      244
    8.385      232
    8.400      212
    8.415      248
    8.430      223
    8.445      219
    8.460      242
    8.475      248
    8.490      216
    8.505      231
    8.520      251
    8.535      242
    8.550      239
    8.565      241
    8.580      234
    8.595      247
    8.610      260
    8.625      253
    8.640      247
    8.655      278
    8.670      286
    8.685      301
    8.700      272
    8.715      278
    8.730      243
    8.745      244
    8.760      232
    8.775      225
    8.790      237
    8.805      198
    8.820      202
    8.835      227
    8.850      234
    8.865      245
    8.880      221
    8.895      226
    8.910      209
    8.925      215
    8.940      214
    8.955      220
    8.970      246
    8.985      222
    9.000      228
    9.015      222
    9.030      228
    9.045      245
    9.060      254
    9.075      233
    9.090      245
    9.105      258
    9.120      284
    9.135      284
    9.150      280
    9.165      278
    9.180      306
    9.195      305
    9.210      318
    9.225      311
    9.240      328
    9.255      325
    9.270      353
    9.285      373
    9.300      346
    9.315      397
    9.330      418
    9.345      416
    9.360      481
    9.375      513
    9.390      493
    9.405      539
    9.420      615
    9.435      647
    9.450      731
    9.465      848
    9.480      998
    9.495     1172
    9.510     1280
    9.525     1361
    9.540     1281
    9.555     1118
    9.570      851
    9.585      682
    9.600      489
    9.615      355
    9.630      277
    9.645      252
    9.660      230
    9.675      219
    9.690      229
    9.705      230
    9.720      208
    9.735      240
    9.750      240
    9.765      236
    9.780      223
    9.795      232
    9.810      251
    9.825      230
    9.840      233
    9.855      233
    9.870      242
    9.885      232
    9.900      216
    9.915      221
    9.930      234
    9.945      235
    9.960      242
    9.975      236
    9.990      223
   10.005      237
   10.020      241
   10.035      254
   10.050      259
   10.065      234
   10.080      264
   10.095      271
   10.110      269
   10.125      301
   10.140      284
   10.155      276
   10.170      322
   10.185      309
   10.200      350
   10.215      351
   10.230      369
   10.245      420
   10.260      445
   10.275      543
   10.290      606
   10.305      562
   10.320      487
   10.335      425
   10.350      363
   10.365      336
   10.380      270
   10.395      228
   10.410      202
   10.425      190
   10.440      197
   10.455      196
   10.470      201
   10.485      219
   10.500      237
   10.515      217
   10.530      212
   10.545      226
   10.560      212
   10.575      197
   10.590      212
   10.605      202
   10.620      205
   10.635      222
   10.650      235
   10.665      246
   10.680      227
   10.695      244
   10.710      258
   10.725      241
   10.740      238
   10.755      255
   10.770      254
   10.785      238
   10.800      246
   10.815      270
   10.830      282
   10.845      299
   10.860      301
   10.875      300
   10.890      311
   10.905      320
   10.920      344
   10.935      373
   10.950      398
   10.965      448
   10.980      530
   10.995      578
   11.010      598
   11.025      580
   11.040      529
   11.055      467
   11.070      382
   11.085      325
   11.100      268
   11.115      249
   11.130      243
   11.145      237
   11.160      222
   11.175      230
   11.190      233
   11.205      214
   11.220      213
   11.235      212
   11.250      231
   11.265      239
   11.280      217
   11.295      229
   11.310      239
   11.325      252
   11.340      237
   11.355      268
   11.370      237
   11.385      241
   11.400      242
   11.415      248
   11.430      236
   11.445      242
   11.460      251
   11.475      253
   11.490      245
   11.505      269
   11.520      297
   11.535      306
   11.550      322
   11.565      305
   11.580      316
   11.595      348
   11.610      381
   11.625      427
   11.640      478
   11.655      524
   11.670      576
   11.685      605
   11.700      599
   11.715      574
   11.730      479
   11.745      404
   11.760      321
   11.775      253
   11.790      229
   11.805      228
   11.820      215
   11.835      201
   11.850      194
   11.865      206
   11.880      218
   11.895      208
   11.910      206
   11.925      211
   11.940      215
   11.955      205
   11.970      197
   11.985      195
   12.000      199
   12.015      213
   12.030      202
   12.045      209
   12.060      203
   12.075      226
   12.090      213
   12.105      222
   12.120      202
   12.135      218
   12.150      218
   12.165      204
   12.180      202
   12.195      199
   12.210      221
   12.225      225
   12.240      235
   12.255      234
   12.270      246
   12.285      238
   12.300      223
   12.315      236
   12.330      255
   12.345      249
   12.360      256
   12.375      259
   12.390      241
   12.405      226
   12.420      202
   12.435      189
   12.450      194
   12.465      199
   12.480      205
   12.495      217
   12.510      220
   12.525      204
   12.540      223
   12.555      217
   12.570      211
   12.585      225
   12.600      218
   12.615      229
   12.630      215
   12.645      205
   12.660      214
   12.675      221
   12.690      230
   12.705      237
   12.720      235
   12.735      233
   12.750      219
   12.765      246
   12.780      240
   12.795      242
   12.810      273
   12.825      260
   12.840      273
   12.855      301
   12.870      336
   12.885      341
   12.900      397
   12.915      443
   12.930      478
   12.945      474
   12.960      438
   12.975      346
   12.990      321
   13.005      273
   13.020      250
   13.035      227
   13.050      219
   13.065      203
   13.080      190
   13.095      205
   13.110      201
   13.125      205
   13.140      197
   13.155      197
   13.170      202
   13.185      205
   13.200      229
   13.215      221
   13.230      180
   13.245      204
   13.260      219
   13.275      201
   13.290      207
   13.305      216
   13.320      238
   13.335      219
   13.350      212
   13.365      213
   13.380      232
   13.395      226
   13.410      220
   13.425      250
   13.440      250
   13.455      277
   13.470      290
   13.485      331
   13.500      345
   13.515      355
   13.530      320
   13.545      313
   13.560      298
   13.575      256
   13.590      253
   13.605      228
   13.620      225
   13.635      202
   13.650      206
   13.665      206
   13.680      197
   13.695      209
   13.710      212
   13.725      196
   13.740      197
   13.755      201
   13.770      193
   13.785      194
   13.800      219
   13.815      217
   13.830      221
   13.845      207
   13.860      225
   13.875      224
   13.890      228
   13.905      239
   13.920      241
   13.935      283
   13.950      280
   13.965      273
   13.980      265
   13.995      287
   14.010      325
   14.025      349
   14.040      356
   14.055      429
   14.070      468
   14.085      430
   14.100      398
   14.115      356
   14.130      298
   14.145      278
   14.160      244
   14.175      227
   14.190      191
   14.205      211
   14.220      217
   14.235      188
   14.250      205
   14.265      191
   14.280      182
   14.295      179
   14.310      184
   14.325      193
   14.340      190
   14.355      203
   14.370      193
   14.385      193
   14.400      202
   14.415      214
   14.430      214
   14.445      209
   14.460      211
   14.475      204
   14.490      187
   14.505      179
   14.520      177
   14.535      170
   14.550      168
   14.565      188
   14.580      182
   14.595      198
   14.610      195
   14.625      201
   14.640      200
   14.655      186
   14.670      184
   14.685      200
   14.700      193
   14.715      196
   14.730      171
   14.745      174
   14.760      213
   14.775      200
   14.790      205
   14.805      210
   14.820      217
   14.835      206
   14.850      196
   14.865      188
   14.880      216
   14.895      205
   14.910      214
   14.925      201
   14.940      182
   14.955      187
   14.970      196
   14.985      187
   15.000      185
   15.015      191
   15.030      206
   15.045      231
   15.060      240
   15.075      237
   15.090      243
   15.105      235
   15.120      244
   15.135      232
   15.150      210
   15.165      224
   15.180      237
   15.195      250
   15.210      244
   15.225      213
   15.240      208
   15.255      171
   15.270      202
   15.285      195
   15.300      205
   15.315      189
   15.330      205
   15.345      220
   15.360      180
   15.375      160
   15.390      177
   15.405      180
   15.420      198
   15.435      181
   15.450      176
   15.465      178
   15.480      195
   15.495      199
   15.510      182
   15.525      175
   15.540      187
   15.555      186
   15.570      189
   15.585      194
   15.600      185
   15.615      177
   15.630      179
   15.645      190
   15.660      202
   15.675      197
   15.690      171
   15.705      182
   15.720      203
   15.735      203
   15.750      187
   15.765      176
   15.780      177
   15.795      192
   15.810      196
   15.825      197
   15.840      229
   15.855      197
   15.870      199
   15.885      213
   15.900      200
   15.915      187
   15.930      198
   15.945      210
   15.960      209
   15.975      210
   15.990      213
   16.005      196
   16.020      212
   16.035      214
   16.050      221
   16.065      220
   16.080      259
   16.095      248
   16.110      248
   16.125      268
   16.140      252
   16.155      253
   16.170      223
   16.185      209
   16.200      205
   16.215      213
   16.230      205
   16.245      205
   16.260      201
   16.275      183
   16.290      200
   16.305      215
   16.320      181
   16.335      200
   16.350      203
   16.365      204
   16.380      204
   16.395      201
   16.410      205
   16.425      197
   16.440      202
   16.455      200
   16.470      212
   16.485      210
   16.500      194
   16.515      205
   16.530      204
   16.545      245
   16.560      258
   16.575      263
   16.590      269
   16.605      255
   16.620      244
   16.635      237
   16.650      221
   16.665      229
   16.680      213
   16.695      214
   16.710      207
   16.725      207
   16.740      222
   16.755      207
   16.770      215
   16.785      195
   16.800      197
   16.815      218
   16.830      221
   16.845      220
   16.860      207
   16.875      219
   16.890      245
   16.905      241
   16.920      242
   16.935      259
   16.950      241
   16.965      272
   16.980      292
   16.995      276
   17.010      326
   17.025      348
   17.040      334
   17.055      385
   17.070      363
   17.085      345
   17.100      315
   17.115      268
   17.130      249
   17.145      204
   17.160      217
   17.175      216
   17.190      191
   17.205      212
   17.220      193
   17.235      174
   17.250      196
   17.265      185
   17.280      196
   17.295      191
   17.310      203
   17.325      186
   17.340      176
   17.355      196
   17.370      188
   17.385      191
   17.400      201
   17.415      216
   17.430      194
   17.445      202
   17.460      240
   17.475      220
   17.490      222
   17.505      224
   17.520      231
   17.535      223
   17.550      227
   17.565      209
   17.580      193
   17.595      199
   17.610      191
   17.625      189
   17.640      191
   17.655      207
   17.670      197
   17.685      196
   17.700      204
   17.715      202
   17.730      184
   17.745      191
   17.760      202
   17.775      213
   17.790      213
   17.805      183
   17.820      190
   17.835      179
   17.850      206
   17.865      218
   17.880      216
   17.895      202
   17.910      199
   17.925      232
   17.940      239
   17.955      242
   17.970      256
   17.985      230
   18.000      227
   18.015      206
   18.030      220
   18.045      207
   18.060      194
   18.075      185
   18.090      207
   18.105      191
   18.120      182
   18.135      183
   18.150      177
   18.165      196
   18.180      191
   18.195      202
   18.210      222
   18.225      199
   18.240      236
   18.255      238
   18.270      231
   18.285      206
   18.300      222
   18.315      229
   18.330      229
   18.345      250
   18.360      256
   18.375      262
   18.390      246
   18.405      228
   18.420      214
   18.435      207
   18.450      212
   18.465      197
   18.480      185
   18.495      179
   18.510      183
   18.525      192
   18.540      194
   18.555      204
   18.570      185
   18.585      176
   18.600      187
   18.615      208
   18.630      199
   18.645      198
   18.660      184
   18.675      186
   18.690      202
   18.705      198
   18.720      188
   18.735      202
   18.750      242
   18.765      197
   18.780      226
   18.795      236
   18.810      225
   18.825      207
   18.840      199
   18.855      184
   18.870      189
   18.885      186
   18.900      189
   18.915      190
   18.930      187
   18.945      180
   18.960      201
   18.975      192
   18.990      185
   19.005      186
   19.020      171
   19.035      172
   19.050      200
   19.065      201
   19.080      173
   19.095      199
   19.110      195
   19.125      197
   19.140      186
   19.155      198
   19.170      201
   19.185      191
   19.200      198
   19.215      195
   19.230      189
   19.245      193
   19.260      187
   19.275      182
   19.290      198
   19.305      210
   19.320      195
   19.335      199
   19.350      197
   19.365      202
   19.380      207
   19.395      191
   19.410      206
   19.425      186
   19.440      209
   19.455      211
   19.470      216
   19.485      213
   19.500      222
   19.515      208
   19.530      241
   19.545      244
   19.560      233
   19.575      243
   19.590      270
   19.605      257
   19.620      259
   19.635      239
   19.650      233
   19.665      237
   19.680      207
   19.695      200
   19.710      209
   19.725      218
   19.740      199
   19.755      210
   19.770      210
   19.785      188
   19.800      204
   19.815      190
   19.830      209
   19.845      210
   19.860      188
   19.875      184
   19.890      195
   19.905      208
   19.920      197
   19.935      193
   19.950      213
   19.965      214
   19.980      185
   19.995      212
   20.010      208
   20.025      193
   20.040      200
   20.055      201
   20.070      206
   20.085      191
   20.100      213
   20.115      213
   20.130      201
   20.145      204
   20.160      215
   20.175      203
   20.190      213
   20.205      219
   20.220      225
   20.235      226
   20.250      216
   20.265      225
   20.280      248
   20.295      267
   20.310      291
   20.325      310
   20.340      312
   20.355      326
   20.370      362
   20.385      327
   20.400      352
   20.415      332
   20.430      276
   20.445      270
   20.460      236
   20.475      229
   20.490      228
   20.505      205
   20.520      216
   20.535      203
   20.550      196
   20.565      208
   20.580      198
   20.595      177
   20.610      189
   20.625      192
   20.640      173
   20.655      189
   20.670      181
   20.685      200
   20.700      212
   20.715      190
   20.730      184
   20.745      210
   20.760      207
   20.775      195
   20.790      192
   20.805      188
   20.820      194
   20.835      212
   20.850      213
   20.865      201
   20.880      206
   20.895      189
   20.910      200
   20.925      208
   20.940      210
   20.955      215
   20.970      200
   20.985      203
   21.000      222
   21.015      208
   21.030      183
   21.045      183
   21.060      182
   21.075      193
   21.090      198
   21.105      199
   21.120      202
   21.135      206
   21.150      202
   21.165      221
   21.180      207
   21.195      227
   21.210      214
   21.225      197
   21.240      206
   21.255      196
   21.270      190
   21.285      214
   21.300      203
   21.315      200
   21.330      209
   21.345      227
   21.360      203
   21.375      185
   21.390      196
   21.405      198
   21.420      196
   21.435      210
   21.450      207
   21.465      203
   21.480      209
   21.495      207
   21.510      201
   21.525      204
   21.540      191
   21.555      211
   21.570      199
   21.585      192
   21.600      197
   21.615      188
   21.630      176
   21.645      206
   21.660      214
   21.675      215
   21.690      205
   21.705      200
   21.720      206
   21.735      212
   21.750      209
   21.765      213
   21.780      236
   21.795      255
   21.810      250
   21.825      249
   21.840      229
   21.855      238
   21.870      259
   21.885      230
   21.900      249
   21.915      236
   21.930      238
   21.945      211
   21.960      204
   21.975      212
   21.990      213
   22.005      202
   22.020      197
   22.035      201
   22.050      182
   22.065      202
   22.080      220
   22.095      206
   22.110      206
   22.125      197
   22.140      217
   22.155      228
   22.170      230
   22.185      227
   22.200      223
   22.215      237
   22.230      239
   22.245      235
   22.260      244
   22.275      225
   22.290      222
   22.305      215
   22.320      236
   22.335      235
   22.350      227
   22.365      245
   22.380      240
   22.395      243
   22.410      250
   22.425      241
   22.440      242
   22.455      260
   22.470      276
   22.485      270
   22.500      290
   22.515      288
   22.530      308
   22.545      367
   22.560      369
   22.575      362
   22.590      348
   22.605      294
   22.620      306
   22.635      251
   22.650      255
   22.665      220
   22.680      230
   22.695      207
   22.710      214
   22.725      226
   22.740      233
   22.755      235
   22.770      238
   22.785      251
   22.800      239
   22.815      273
   22.830      289
   22.845      281
   22.860      319
   22.875      387
   22.890      371
   22.905      370
   22.920      389
   22.935      344
   22.950      322
   22.965      317
   22.980      292
   22.995      254
   23.010      235
   23.025      222
   23.040      201
   23.055      216
   23.070      208
   23.085      230
   23.100      246
   23.115      236
   23.130      209
   23.145      220
   23.160      209
   23.175      229
   23.190      234
   23.205      230
   23.220      250
   23.235      225
   23.250      259
   23.265      226
   23.280      229
   23.295      215
   23.310      226
   23.325      233
   23.340      200
   23.355      203
   23.370      205
   23.385      191
   23.400      182
   23.415      166
   23.430      183
   23.445      191
   23.460      209
   23.475      207
   23.490      194
   23.505      200
   23.520      202
   23.535      194
   23.550      220
   23.565      193
   23.580      207
   23.595      201
   23.610      190
   23.625      205
   23.640      207
   23.655      222
   23.670      200
   23.685      209
   23.700      206
   23.715      184
   23.730      207
   23.745      201
   23.760      195
   23.775      205
   23.790      206
   23.805      221
   23.820      206
   23.835      222
   23.850      220
   23.865      240
   23.880      225
   23.895      249
   23.910      263
   23.925      229
   23.940      255
   23.955      219
   23.970      233
   23.985      216
   24.000      220
   24.015      214
   24.030      195
   24.045      204
   24.060      199
   24.075      191
   24.090      195
   24.105      186
   24.120      195
   24.135      197
   24.150      199
   24.165      207
   24.180      204
   24.195      212
   24.210      201
   24.225      212
   24.240      212
   24.255      202
   24.270      199
   24.285      191
   24.300      196
   24.315      178
   24.330      191
   24.345      218
   24.360      190
   24.375      199
   24.390      183
   24.405      187
   24.420      204
   24.435      201
   24.450      202
   24.465      221
   24.480      201
   24.495      232
   24.510      207
   24.525      190
   24.540      186
   24.555      200
   24.570      227
   24.585      211
   24.600      198
   24.615      232
   24.630      214
   24.645      208
   24.660      201
   24.675      193
   24.690      196
   24.705      202
   24.720      202
   24.735      202
   24.750      222
   24.765      207
   24.780      194
   24.795      189
   24.810      199
   24.825      204
   24.840      209
   24.855      211
   24.870      212
   24.885      211
   24.900      216
   24.915      192
   24.930      191
   24.945      194
   24.960      203
   24.975      194
   24.990      187
   25.005      204
   25.020      200
   25.035      193
   25.050      222
   25.065      208
   25.080      203
   25.095      207
   25.110      203
   25.125      187
   25.140      201
   25.155      204
   25.170      208
   25.185      232
   25.200      222
   25.215      231
   25.230      217
   25.245      203
   25.260      196
   25.275      219
   25.290      202
   25.305      201
   25.320      199
   25.335      179
   25.350      193
   25.365      193
   25.380      205
   25.395      198
   25.410      192
   25.425      196
   25.440      206
   25.455      210
   25.470      213
   25.485      218
   25.500      225
   25.515      236
   25.530      227
   25.545      198
   25.560      204
   25.575      207
   25.590      197
   25.605      192
   25.620      193
   25.635      198
   25.650      217
   25.665      197
   25.680      219
   25.695      223
   25.710      227
   25.725      236
   25.740      243
   25.755      262
   25.770      273
   25.785      275
   25.800      312
   25.815      268
   25.830      293
   25.845      288
   25.860      285
   25.875      263
   25.890      262
   25.905      243
   25.920      236
   25.935      201
   25.950      195
   25.965      192
   25.980      211
   25.995      196
   26.010      195
   26.025      173
   26.040      210
   26.055      205
   26.070      198
   26.085      185
   26.100      179
   26.115      200
   26.130      201
   26.145      207
   26.160      205
   26.175      196
   26.190      190
   26.205      218
   26.220      213
   26.235      189
   26.250      190
   26.265      184
   26.280      186
   26.295      208
   26.310      186
   26.325      204
   26.340      203
   26.355      209
   26.370      219
   26.385      209
   26.400      218
   26.415      195
   26.430      214
   26.445      232
   26.460      202
   26.475      220
   26.490      224
   26.505      216
   26.520      205
   26.535      203
   26.550      190
   26.565      193
   26.580      182
   26.595      205
   26.610      198
   26.625      177
   26.640      182
   26.655      184
   26.670      185
   26.685      171
   26.700      180
   26.715      197
   26.730      219
   26.745      192
   26.760      203
   26.775      187
   26.790      185
   26.805      198
   26.820      182
   26.835      196
   26.850      189
   26.865      177
   26.880      187
   26.895      200
   26.910      196
   26.925      209
   26.940      196
   26.955      197
   26.970      224
   26.985      245
   27.000      229
   27.015      244
   27.030      237
   27.045      193
   27.060      221
   27.075      220
   27.090      214
   27.105      198
   27.120      187
   27.135      206
   27.150      206
   27.165      191
   27.180      189
   27.195      191
   27.210      210
   27.225      197
   27.240      184
   27.255      185
   27.270      170
   27.285      204
   27.300      181
   27.315      178
   27.330      184
   27.345      207
   27.360      211
   27.375      219
   27.390      215
   27.405      203
   27.420      199
   27.435      185
   27.450      194
   27.465      193
   27.480      197
   27.495      211
   27.510      194
   27.525      216
   27.540      217
   27.555      219
   27.570      238
   27.585      220
   27.600      218
   27.615      218
   27.630      210
   27.645      207
   27.660      213
   27.675      222
   27.690      222
   27.705      202
   27.720      206
   27.735      211
   27.750      197
   27.765      199
   27.780      184
   27.795      219
   27.810      218
   27.825      193
   27.840      214
   27.855      204
   27.870      191
   27.885      212
   27.900      213
   27.915      220
   27.930      199
   27.945      226
   27.960      232
   27.975      195
   27.990      214
   28.005      203
   28.020      195
   28.035      206
   28.050      212
   28.065      208
   28.080      224
   28.095      243
   28.110      225
   28.125      209
   28.140      199
   28.155      212
   28.170      214
   28.185      229
   28.200      232
   28.215      218
   28.230      233
   28.245      200
   28.260      201
   28.275      215
   28.290      183
   28.305      190
   28.320      190
   28.335      203
   28.350      211
   28.365      204
   28.380      238
   28.395      223
   28.410      218
   28.425      248
   28.440      248
   28.455      215
   28.470      229
   28.485      212
   28.500      198
   28.515      220
   28.530      227
   28.545      208
   28.560      205
   28.575      217
   28.590      213
   28.605      198
   28.620      193
   28.635      207
   28.650      204
   28.665      202
   28.680      190
   28.695      195
   28.710      183
   28.725      183
   28.740      187
   28.755      201
   28.770      200
   28.785      207
   28.800      196
   28.815      191
   28.830      183
   28.845      164
   28.860      172
   28.875      170
   28.890      186
   28.905      205
   28.920      193
   28.935      198
   28.950      200
   28.965      189
   28.980      192
   28.995      197
   29.010      181
   29.025      176
   29.040      180
   29.055      205
   29.070      205
   29.085      192
   29.100      184
   29.115      186
   29.130      191
   29.145      192
   29.160      193
   29.175      200
   29.190      226
   29.205      199
   29.220      218
   29.235      229
   29.250      221
   29.265      214
   29.280      219
   29.295      217
   29.310      210
   29.325      217
   29.340      220
   29.355      199
   29.370      219
   29.385      181
   29.400      156
   29.415      193
   29.430      189
   29.445      179
   29.460      181
   29.475      202
   29.490      192
   29.505      186
   29.520      177
   29.535      188
   29.550      178
   29.565      180
   29.580      165
   29.595      179
   29.610      200
   29.625      177
   29.640      191
   29.655      187
   29.670      193
   29.685      213
   29.700      181
   29.715      184
   29.730      189
   29.745      198
   29.760      207
   29.775      213
   29.790      216
   29.805      209
   29.820      177
   29.835      181
   29.850      189
   29.865      184
   29.880      205
   29.895      181
   29.910      199
   29.925      204
   29.940      167
   29.955      178
   29.970      185
   29.985      174
   30.000      199
   30.015      193
   30.030      180
   30.045      194
   30.060      189
   30.075      159
   30.090      198
   30.105      184
   30.120      189
   30.135      187
   30.150      161
   30.165      176
   30.180      188
   30.195      191
   30.210      193
   30.225      191
   30.240      177
   30.255      196
   30.270      187
   30.285      179
   30.300      170
   30.315      189
   30.330      197
   30.345      188
   30.360      203
   30.375      213
   30.390      186
   30.405      191
   30.420      187
   30.435      189
   30.450      199
   30.465      189
   30.480      186
   30.495      178
   30.510      173
   30.525      181
   30.540      194
   30.555      193
   30.570      191
   30.585      201
   30.600      222
   30.615      199
   30.630      184
   30.645      190
   30.660      205
   30.675      218
   30.690      206
   30.705      203
   30.720      188
   30.735      176
   30.750      166
   30.765      167
   30.780      191
   30.795      200
   30.810      188
   30.825      186
   30.840      171
   30.855      164
   30.870      175
   30.885      183
   30.900      185
   30.915      186
   30.930      191
   30.945      179
   30.960      190
   30.975      188
   30.990      194
   31.005      180
   31.020      175
   31.035      185
   31.050      176
   31.065      186
   31.080      175
   31.095      181
   31.110      174
   31.125      186
   31.140      181
   31.155      187
   31.170      203
   31.185      175
   31.200      175
   31.215      168
   31.230      178
   31.245      165
   31.260      183
   31.275      169
   31.290      170
   31.305      165
   31.320      195
   31.335      194
   31.350      194
   31.365      179
   31.380      195
   31.395      190
   31.410      179
   31.425      194
   31.440      213
   31.455      198
   31.470      200
   31.485      176
   31.500      188
   31.515      197
   31.530      186
   31.545      160
   31.560      173
   31.575      176
   31.590      195
   31.605      191
   31.620      179
   31.635      181
   31.650      172
   31.665      158
   31.680      167
   31.695      163
   31.710      173
   31.725      202
   31.740      183
   31.755      199
   31.770      163
   31.785      168
   31.800      170
   31.815      172
   31.830      167
   31.845      184
   31.860      172
   31.875      179
   31.890      164
   31.905      191
   31.920      187
   31.935      190
   31.950      199
   31.965      191
   31.980      196
   31.995      194
   32.010      171
   32.025      183
   32.040      169
   32.055      167
   32.070      200
   32.085      195
   32.100      193
   32.115      168
   32.130      152
   32.145      166
   32.160      175
   32.175      176
   32.190      181
   32.205      171
   32.220      173
   32.235      172
   32.250      192
   32.265      168
   32.280      170
   32.295      158
   32.310      176
   32.325      197
   32.340      181
   32.355      175
   32.370      177
   32.385      191
   32.400      167
   32.415      184
   32.430      167
   32.445      177
   32.460      166
   32.475      160
   32.490      169
   32.505      166
   32.520      158
   32.535      161
   32.550      172
   32.565      154
   32.580      167
   32.595      169
   32.610      172
   32.625      176
   32.640      159
   32.655      163
   32.670      175
   32.685      182
   32.700      178
   32.715      171
   32.730      163
   32.745      139
   32.760      166
   32.775      178
   32.790      194
   32.805      175
   32.820      172
   32.835      183
   32.850      172
   32.865      169
   32.880      188
   32.895      196
   32.910      178
   32.925      178
   32.940      190
   32.955      185
   32.970      183
   32.985      181
   33.000      163
   33.015      171
   33.030      173
   33.045      159
   33.060      155
   33.075      162
   33.090      177
   33.105      161
   33.120      149
   33.135      160
   33.150      178
   33.165      164
   33.180      163
   33.195      179
   33.210      172
   33.225      167
   33.240      164
   33.255      177
   33.270      171
   33.285      170
   33.300      160
   33.315      176
   33.330      175
   33.345      179
   33.360      162
   33.375      170
   33.390      173
   33.405      170
   33.420      171
   33.435      174
   33.450      156
   33.465      161
   33.480      170
   33.495      178
   33.510      160
   33.525      174
   33.540      188
   33.555      196
   33.570      178
   33.585      206
   33.600      184
   33.615      184
   33.630      170
   33.645      163
   33.660      198
   33.675      184
   33.690      155
   33.705      171
   33.720      171
   33.735      181
   33.750      186
   33.765      184
   33.780      180
   33.795      177
   33.810      194
   33.825      203
   33.840      205
   33.855      200
   33.870      185
   33.885      167
   33.900      185
   33.915      194
   33.930      189
   33.945      190
   33.960      172
   33.975      185
   33.990      163
   34.005      154
   34.020      174
   34.035      170
   34.050      153
   34.065      175
   34.080      177
   34.095      160
   34.110      171
   34.125      178
   34.140      166
   34.155      179
   34.170      188
   34.185      163
   34.200      173
   34.215      166
   34.230      170
   34.245      167
   34.260      149
   34.275      162
   34.290      160
   34.305      160
   34.320      154
   34.335      175
   34.350      170
   34.365      165
   34.380      160
   34.395      178
   34.410      173
   34.425      166
   34.440      170
   34.455      157
   34.470      166
   34.485      157
   34.500      152
   34.515      161
   34.530      159
   34.545      159
   34.560      135
   34.575      156
   34.590      152
   34.605      170
   34.620      174
   34.635      170
   34.650      174
   34.665      156
   34.680      152
   34.695      165
   34.710      184
   34.725      181
   34.740      177
   34.755      170
   34.770      154
   34.785      171
   34.800      184
   34.815      167
   34.830      173
   34.845      182
   34.860      177
   34.875      167
   34.890      172
   34.905      172
   34.920      142
   34.935      165
   34.950      173
   34.965      150
   34.980      147
   34.995      172
   35.010      182
   35.025      155
   35.040      167
   35.055      183
   35.070      163
   35.085      166
   35.100      164
   35.115      144
   35.130      148
   35.145      163
   35.160      155
   35.175      151
   35.190      150
   35.205      170
   35.220      160
   35.235      155
   35.250      158
   35.265      158
   35.280      164
   35.295      160
   35.310      161
   35.325      161
   35.340      165
   35.355      148
   35.370      170
   35.385      152
   35.400      152
   35.415      152
   35.430      159
   35.445      153
   35.460      170
   35.475      165
   35.490      166
   35.505      167
   35.520      158
   35.535      154
   35.550      160
   35.565      153
   35.580      149
   35.595      136
   35.610      150
   35.625      159
   35.640      154
   35.655      146
   35.670      171
   35.685      162
   35.700      162
   35.715      151
   35.730      152
   35.745      161
   35.760      166
   35.775      140
   35.790      143
   35.805      158
   35.820      174
   35.835      160
   35.850      161
   35.865      161
   35.880      148
   35.895      161
   35.910      139
   35.925      179
   35.940      168
   35.955      170
   35.970      163
   35.985      172
   36.000      158
   36.015      177
   36.030      164
   36.045      168
   36.060      157
   36.075      179
   36.090      168
   36.105      168
   36.120      184
   36.135      168
   36.150      165
   36.165      157
   36.180      164
   36.195      176
   36.210      160
   36.225      163
   36.240      152
   36.255      150
   36.270      157
   36.285      148
   36.300      142
   36.315      155
   36.330      159
   36.345      155
   36.360      145
   36.375      152
   36.390      163
   36.405      145
   36.420      154
   36.435      167
   36.450      130
   36.465      141
   36.480      146
   36.495      160
   36.510      153
   36.525      176
   36.540      158
   36.555      151
   36.570      155
   36.585      150
   36.600      149
   36.615      156
   36.630      161
   36.645      162
   36.660      151
   36.675      161
   36.690      157
   36.705      172
   36.720      146
   36.735      155
   36.750      156
   36.765      147
   36.780      151
   36.795      150
   36.810      154
   36.825      157
   36.840      161
   36.855      163
   36.870      174
   36.885      153
   36.900      148
   36.915      142
   36.930      136
   36.945      163
   36.960      158
   36.975      135
   36.990      162
   37.005      146
   37.020      149
   37.035      161
   37.050      160
   37.065      149
   37.080      150
   37.095      170
   37.110      169
   37.125      167
   37.140      151
   37.155      160
   37.170      171
   37.185      158
   37.200      145
   37.215      151
   37.230      146
   37.245      144
   37.260      159
   37.275      133
   37.290      136
   37.305      127
   37.320      140
   37.335      141
   37.350      135
   37.365      159
   37.380      164
   37.395      145
   37.410      152
   37.425      140
   37.440      147
   37.455      150
   37.470      143
   37.485      154
   37.500      163
   37.515      167
   37.530      170
   37.545      162
   37.560      170
   37.575      164
   37.590      152
   37.605      153
   37.620      143
   37.635      179
   37.650      147
   37.665      135
   37.680      152
   37.695      136
   37.710      142
   37.725      161
   37.740      176
   37.755      160
   37.770      145
   37.785      162
   37.800      132
   37.815      149
   37.830      163
   37.845      157
   37.860      148
   37.875      150
   37.890      147
   37.905      146
   37.920      145
   37.935      156
   37.950      169
   37.965      171
   37.980      152
   37.995      159
   38.010      144
   38.025      153
   38.040      140
   38.055      167
   38.070      153
   38.085      134
   38.100      142
   38.115      142
   38.130      141
   38.145      150
   38.160      148
   38.175      156
   38.190      166
   38.205      151
   38.220      141
   38.235      153
   38.250      141
   38.265      124
   38.280      150
   38.295      159
   38.310      145
   38.325      148
   38.340      144
   38.355      158
   38.370      143
   38.385      146
   38.400      149
   38.415      164
   38.430      173
   38.445      159
   38.460      142
   38.475      142
   38.490      157
   38.505      160
   38.520      144
   38.535      149
   38.550      130
   38.565      155
   38.580      153
   38.595      144
   38.610      142
   38.625      156
   38.640      149
   38.655      158
   38.670      165
   38.685      158
   38.700      146
   38.715      153
   38.730      161
   38.745      152
   38.760      139
   38.775      156
   38.790      145
   38.805      142
   38.820      151
   38.835      149
   38.850      143
   38.865      146
   38.880      143
   38.895      146
   38.910      138
   38.925      143
   38.940      134
   38.955      150
   38.970      150
   38.985      151
   39.000      148
   39.015      133
   39.030      138
   39.045      138
   39.060      144
   39.075      157
   39.090      156
   39.105      136
   39.120      134
   39.135      143
   39.150      147
   39.165      141
   39.180      152
   39.195      152
   39.210      156
   39.225      148
   39.240      145
   39.255      149
   39.270      159
   39.285      163
   39.300      150
   39.315      149
   39.330      154
   39.345      136
   39.360      158
   39.375      136
   39.390      149
   39.405      165
   39.420      155
   39.435      154
   39.450      161
   39.465      143
   39.480      154
   39.495      146
   39.510      146
   39.525      151
   39.540      146
   39.555      155
   39.570      156
   39.585      153
   39.600      148
   39.615      152
   39.630      160
   39.645      155
   39.660      160
   39.675      156
   39.690      146
   39.705      138
   39.720      165
   39.735      153
   39.750      152
   39.765      142
   39.780      152
   39.795      159
   39.810      149
   39.825      146
   39.840      167
   39.855      154
   39.870      154
   39.885      145
   39.900      141
   39.915      145
   39.930      160
   39.945      151
   39.960      159
   39.975      150
   39.990      151
   40.005      168
   40.020      157
   40.035      128
   40.050      135
   40.065      159
   40.080      156
   40.095      157
   40.110      135
   40.125      158
   40.140      156
   40.155      155
   40.170      142
   40.185      149
   40.200      164
   40.215      134
   40.230      145
   40.245      147
   40.260      147
   40.275      156
   40.290      155
   40.305      154
   40.320      141
   40.335      148
   40.350      159
   40.365      154
   40.380      157
   40.395      147
   40.410      161
   40.425      176
   40.440      171
   40.455      163
   40.470      176
   40.485      194
   40.500      170
   40.515      195
   40.530      174
   40.545      174
   40.560      178
   40.575      165
   40.590      178
   40.605      165
   40.620      146
   40.635      152
   40.650      132
   40.665      157
   40.680      159
   40.695      150
   40.710      148
   40.725      144
   40.740      152
   40.755      142
   40.770      144
   40.785      148
   40.800      154
   40.815      154
   40.830      154
   40.845      156
   40.860      160
   40.875      149
   40.890      151
   40.905      155
   40.920      156
   40.935      137
   40.950      139
   40.965      154
   40.980      161
   40.995      136
   41.010      132
   41.025      154
   41.040      160
   41.055      128
   41.070      141
   41.085      151
   41.100      144
   41.115      127
   41.130      131
   41.145      153
   41.160      129
   41.175      153
   41.190      142
   41.205      166
   41.220      179
   41.235      160
   41.250      147
   41.265      166
   41.280      157
   41.295      136
   41.310      144
   41.325      153
   41.340      157
   41.355      152
   41.370      150
   41.385      160
   41.400      145
   41.415      134
   41.430      152
   41.445      149
   41.460      152
   41.475      155
   41.490      148
   41.505      152
   41.520      141
   41.535      140
   41.550      144
   41.565      139
   41.580      134
   41.595      154
   41.610      145
   41.625      134
   41.640      148
   41.655      150
   41.670      150
   41.685      150
   41.700      139
   41.715      172
   41.730      166
   41.745      149
   41.760      140
   41.775      145
   41.790      158
   41.805      147
   41.820      132
   41.835      142
   41.850      145
   41.865      143
   41.880      123
   41.895      146
   41.910      140
   41.925      144
   41.940      155
   41.955      165
   41.970      170
   41.985      164
   42.000      152
   42.015      144
   42.030      146
   42.045      161
   42.060      150
   42.075      162
   42.090      173
   42.105      165
   42.120      155
   42.135      162
   42.150      165
   42.165      156
   42.180      166
   42.195      150
   42.210      145
   42.225      154
   42.240      163
   42.255      164
   42.270      150
   42.285      154
   42.300      143
   42.315      151
   42.330      152
   42.345      146
   42.360      161
   42.375      158
   42.390      140
   42.405      141
   42.420      147
   42.435      146
   42.450      125
   42.465      150
   42.480      150
   42.495      161
   42.510      150
   42.525      157
   42.540      157
   42.555      152
   42.570      157
   42.585      146
   42.600      134
   42.615      143
   42.630      157
   42.645      143
   42.660      147
   42.675      163
   42.690      151
   42.705      159
   42.720      160
   42.735      156
   42.750      160
   42.765      149
   42.780      147
   42.795      152
   42.810      154
   42.825      148
   42.840      144
   42.855      149
   42.870      146
   42.885      148
   42.900      166
   42.915      148
   42.930      126
   42.945      149
   42.960      164
   42.975      141
   42.990      142
   43.005      140
   43.020      158
   43.035      146
   43.050      161
   43.065      144
   43.080      167
   43.095      157
   43.110      142
   43.125      139
   43.140      132
   43.155      157
   43.170      165
   43.185      155
   43.200      154
   43.215      163
   43.230      157
   43.245      144
   43.260      129
   43.275      145
   43.290      163
   43.305      163
   43.320      161
   43.335      161
   43.350      166
   43.365      152
   43.380      165
   43.395      158
   43.410      140
   43.425      137
   43.440      156
   43.455      158
   43.470      142
   43.485      146
   43.500      132
   43.515      143
   43.530      149
   43.545      139
   43.560      131
   43.575      135
   43.590      153
   43.605      137
   43.620      139
   43.635      137
   43.650      144
   43.665      152
   43.680      143
   43.695      142
   43.710      144
   43.725      144
   43.740      147
   43.755      147
   43.770      121
   43.785      151
   43.800      150
   43.815      142
   43.830      116
   43.845      148
   43.860      154
   43.875      152
   43.890      133
   43.905      145
   43.920      144
   43.935      141
   43.950      148
   43.965      149
   43.980      142
   43.995      151
   44.010      151
   44.025      144
   44.040      155
   44.055      156
   44.070      166
   44.085      163
   44.100      160
   44.115      148
   44.130      140
   44.145      149
   44.160      165
   44.175      152
   44.190      162
   44.205      167
   44.220      145
   44.235      152
   44.250      168
   44.265      146
   44.280      152
   44.295      156
   44.310      157
   44.325      145
   44.340      159
   44.355      170
   44.370      161
   44.385      146
   44.400      154
   44.415      133
   44.430      147
   44.445      144
   44.460      143
   44.475      148
   44.490      144
   44.505      134
   44.520      145
   44.535      144
   44.550      129
   44.565      133
   44.580      141
   44.595      136
   44.610      151
   44.625      156
   44.640      127
   44.655      129
   44.670      131
   44.685      132
   44.700      134
   44.715      149
   44.730      144
   44.745      151
   44.760      145
   44.775      139
   44.790      148
   44.805      159
   44.820      148
   44.835      150
   44.850      162
   44.865      143
   44.880      145
   44.895      143
   44.910      135
   44.925      148
   44.940      148
   44.955      145
   44.970      158
   44.985      151
   45.000      146
   45.015      156
   45.030      145
   45.045      145
   45.060      144
   45.075      144
   45.090      127
   45.105      139
   45.120      154
   45.135      152
   45.150      146
   45.165      170
   45.180      138
   45.195      152
   45.210      154
   45.225      158
   45.240      165
   45.255      152
   45.270      148
   45.285      153
   45.300      153
   45.315      127
   45.330      157
   45.345      159
   45.360      133
   45.375      139
   45.390      120
   45.405      144
   45.420      140
   45.435      162
   45.450      157
   45.465      139
   45.480      146
   45.495      149
   45.510      161
   45.525      147
   45.540      154
   45.555      141
   45.570      151
   45.585      146
   45.600      132
   45.615      136
   45.630      152
   45.645      141
   45.660      146
   45.675      153
   45.690      151
   45.705      151
   45.720      138
   45.735      135
   45.750      153
   45.765      149
   45.780      129
   45.795      136
   45.810      155
   45.825      148
   45.840      137
   45.855      138
   45.870      135
   45.885      148
   45.900      139
   45.915      151
   45.930      141
   45.945      123
   45.960      150
   45.975      144
   45.990      148
   46.005      140
   46.020      142
   46.035      142
   46.050      149
   46.065      150
   46.080      144
   46.095      140
   46.110      141
   46.125      144
   46.140      141
   46.155      154
   46.170      137
   46.185      146
   46.200      142
   46.215      154
   46.230      143
   46.245      128
   46.260      144
   46.275      151
   46.290      164
   46.305      140
   46.320      141
   46.335      176
   46.350      157
   46.365      137
   46.380      147
   46.395      148
   46.410      137
   46.425      144
   46.440      156
   46.455      159
   46.470      134
   46.485      151
   46.500      129
   46.515      137
   46.530      144
   46.545      150
   46.560      160
   46.575      134
   46.590      122
   46.605      143
   46.620      144
   46.635      144
   46.650      134
   46.665      146
   46.680      146
   46.695      147
   46.710      144
   46.725      145
   46.740      124
   46.755      122
   46.770      140
   46.785      147
   46.800      147
   46.815      120
   46.830      155
   46.845      140
   46.860      152
   46.875      156
   46.890      150
   46.905      119
   46.920      143
   46.935      154
   46.950      133
   46.965      161
   46.980      142
   46.995      139
   47.010      149
   47.025      142
   47.040      140
   47.055      140
   47.070      144
   47.085      148
   47.100      149
   47.115      155
   47.130      126
   47.145      130
   47.160      160
   47.175      154
   47.190      159
   47.205      149
   47.220      135
   47.235      148
   47.250      128
   47.265      139
   47.280      136
   47.295      131
   47.310      143
   47.325      145
   47.340      125
   47.355      140
   47.370      140
   47.385      136
   47.400      140
   47.415      145
   47.430      147
   47.445      153
   47.460      156
   47.475      157
   47.490      148
   47.505      136
   47.520      151
   47.535      125
   47.550      149
   47.565      135
   47.580      135
   47.595      130
   47.610      152
   47.625      158
   47.640      152
   47.655      158
   47.670      157
   47.685      140
   47.700      129
   47.715      139
   47.730      141
   47.745      141
   47.760      142
   47.775      147
   47.790      152
   47.805      150
   47.820      151
   47.835      145
   47.850      139
   47.865      132
   47.880      146
   47.895      148
   47.910      158
   47.925      137
   47.940      140
   47.955      146
   47.970      156
   47.985      150
   48.000      142
   48.015      121
   48.030      128
   48.045      139
   48.060      151
   48.075      142
   48.090      151
   48.105      142
   48.120      143
   48.135      135
   48.150      127
   48.165      136
   48.180      134
   48.195      126
   48.210      125
   48.225      141
   48.240      127
   48.255      141
   48.270      137
   48.285      145
   48.300      136
   48.315      135
   48.330      131
   48.345      133
   48.360      129
   48.375      135
   48.390      135
   48.405      145
   48.420      132
   48.435      144
   48.450      149
   48.465      151
   48.480      144
   48.495      143
   48.510      144
   48.525      150
   48.540      150
   48.555      168
   48.570      159
   48.585      145
   48.600      161
   48.615      138
   48.630      137
   48.645      143
   48.660      148
   48.675      176
   48.690      165
   48.705      151
   48.720      137
   48.735      132
   48.750      158
   48.765      164
   48.780      153
   48.795      139
   48.810      149
   48.825      129
   48.840      150
   48.855      133
   48.870      138
   48.885      135
   48.900      135
   48.915      131
   48.930      147
   48.945      155
   48.960      154
   48.975      155
   48.990      137
   49.005      142
   49.020      144
   49.035      145
   49.050      132
   49.065      131
   49.080      144
   49.095      153
   49.110      134
   49.125      117
   49.140      131
   49.155      152
   49.170      155
   49.185      135
   49.200      149
   49.215      131
   49.230      133
   49.245      138
   49.260      138
   49.275      129
   49.290      137
   49.305      147
   49.320      124
   49.335      139
   49.350      142
   49.365      118
   49.380      140
   49.395      140
   49.410      131
   49.425      129
   49.440      130
   49.455      120
   49.470      136
   49.485      139
   49.500      126
   49.515      137
   49.530      130
   49.545      154
   49.560      161
   49.575      146
   49.590      136
   49.605      129
   49.620      133
   49.635      130
   49.650      122
   49.665      143
   49.680      131
   49.695      113
   49.710      138
   49.725      138
   49.740      134
   49.755      158
   49.770      156
   49.785      125
   49.800      114
   49.815      128
   49.830      120
   49.845      124
   49.860      140
   49.875      157
   49.890      140
   49.905      154
   49.920      150
   49.935      142
   49.950      144
   49.965      138
   49.980      153
