    1.500       86
    1.515       82
    1.530       90
    1.545       91
    1.560       84
    1.575      107
    1.590       88
    1.605       83
    1.620       75
    1.635       85
    1.650       96
    1.665       86
    1.680       82
    1.695       77
    1.710       93
    1.725       97
    1.740       79
    1.755       77
    1.770       80
    1.785      108
    1.800       87
    1.815       79
    1.830      108
    1.845       90
    1.860       84
    1.875       85
    1.890       84
    1.905       86
    1.920       95
    1.935       96
    1.950       93
    1.965       88
    1.980       93
    1.995       92
    2.010       84
    2.025      107
    2.040      109
    2.055       86
    2.070       85
    2.085       97
    2.100       94
    2.115      101
    2.130       97
    2.145       82
    2.160       83
    2.175      123
    2.190       98
    2.205       86
    2.220      101
    2.235      101
    2.250      102
    2.265       93
    2.280       91
    2.295       92
    2.310      100
    2.325       89
    2.340       88
    2.355       83
    2.370       90
    2.385       93
    2.400       97
    2.415      101
    2.430       92
    2.445      108
    2.460       98
    2.475       98
    2.490      106
    2.505       95
    2.520       98
    2.535      106
    2.550      111
    2.565       97
    2.580       96
    2.595       92
    2.610       87
    2.625      103
    2.640       98
    2.655       99
    2.670      105
    2.685       95
    2.700       90
    2.715      103
    2.730       90
    2.745       83
    2.760       90
    2.775       93
    2.790       94
    2.805      100
    2.820      101
    2.835       95
    2.850      108
    2.865       96
    2.880       96
    2.895       80
    2.910       99
    2.925       85
    2.940       83
    2.955      103
    2.970      114
    2.985      118
    3.000      106
    3.015       97
    3.030      101
    3.045      109
    3.060      102
    3.075       98
    3.090       99
    3.105      101
    3.120       89
    3.135      101
    3.150      110
    3.165       92
    3.180       94
    3.195      103
    3.210       81
    3.225       95
    3.240      104
    3.255      101
    3.270      107
    3.285      104
    3.300       90
    3.315       71
    3.330       98
    3.345      104
    3.360      101
    3.375      108
    3.390       85
    3.405       95
    3.420      108
    3.435      109
    3.450      103
    3.465       96
    3.480       96
    3.495       95
    3.510      110
    3.525       84
    3.540      106
    3.555      108
    3.570      107
    3.585      105
    3.600      101
    3.615       91
    3.630       97
    3.645      101
    3.660      108
    3.675      104
    3.690      104
    3.705       88
    3.720      104
    3.735       99
    3.750       98
    3.765      108
    3.780       91
    3.795       98
    3.810       92
    3.825      102
    3.840      107
    3.855      112
    3.870      103
    3.885       83
    3.900       90
    3.915       92
    3.930       93
    3.945       95
    3.960      113
    3.975      118
    3.990       97
    4.005      103
    4.020      108
    4.035      102
    4.050      102
    4.065       86
    4.080       98
    4.095      106
    4.110      111
    4.125      112
    4.140      112
    4.155      100
    4.170      110
    4.185      111
    4.200      115
    4.215      112
    4.230      115
    4.245      104
    4.260      107
    4.275      124
    4.290      104
    4.305       92
    4.320       95
    4.335       91
    4.350       99
    4.365       98
    4.380      114
    4.395       97
    4.410      116
    4.425      121
    4.440      113
    4.455       97
    4.470      110
    4.485      100
    4.500       98
    4.515       94
    4.530      107
    4.545       92
    4.560       88
    4.575       92
    4.590      110
    4.605      106
    4.620       92
    4.635      102
    4.650      102
    4.665      106
    4.680      113
    4.695      101
    4.710      105
    4.725      107
    4.740      105
    4.755      100
    4.770      103
    4.785      100
    4.800       91
    4.815      105
    4.830      104
    4.845      109
    4.860      112
    4.875      105
    4.890      110
    4.905       96
    4.920      115
    4.935      115
    4.950       98
    4.965      105
    4.980      107
    4.995       96
    5.010      109
    5.025      102
    5.040      106
    5.055      104
    5.070      101
    5.085      102
    5.100       99
    5.115       94
    5.130      115
    5.145      108
    5.160      107
    5.175       97
    5.190      108
    5.205       86
    5.220      117
    5.235      104
    5.250      107
    5.265      113
    5.280      130
    5.295       99
    5.310      102
    5.325      101
    5.340       98
    5.355      109
    5.370      107
    5.385      126
    5.400      110
    5.415      104
    5.430      102
    5.445      106
    5.460      111
    5.475       94
    5.490      104
    5.505       94
    5.520      104
    5.535      101
    5.550      110
    5.565      109
    5.580      106
    5.595      119
    5.610      109
    5.625      119
    5.640       93
    5.655       98
    5.670      101
    5.685      104
    5.700      102
    5.715      104
    5.730      118
    5.745      107
    5.760       94
    5.775      107
    5.790      102
    5.805      103
    5.820      113
    5.835      114
    5.850      110
    5.865      103
    5.880      100
    5.895      105
    5.910       96
    5.925      114
    5.940      112
    5.955      116
    5.970      114
    5.985      114
    6.000      104
    6.015       94
    6.030      102
    6.045      110
    6.060      104
    6.075      106
    6.090      109
    6.105      110
    6.120      105
    6.135      106
    6.150       97
    6.165      102
    6.180       97
    6.195      105
    6.210      105
    6.225      110
    6.240      107
    6.255      116
    6.270      111
    6.285      103
    6.300       92
    6.315      119
    6.330       97
    6.345       91
    6.360       98
    6.375      123
    6.390      106
    6.405       91
    6.420       95
    6.435      120
    6.450      104
    6.465      110
    6.480      104
    6.495      110
    6.510      100
    6.525      106
    6.540       91
    6.555      105
    6.570      118
    6.585      112
    6.600       89
    6.615      106
    6.630       84
    6.645       88
    6.660      104
    6.675      124
    6.690      100
    6.705       99
    6.720      107
    6.735      113
    6.750      110
    6.765       97
    6.780      106
    6.795      107
    6.810      114
    6.825      123
    6.840      112
    6.855      112
    6.870      107
    6.885       94
    6.900       96
    6.915      103
    6.930      107
    6.945      113
    6.960       90
    6.975       95
    6.990      104
    7.005      100
    7.020      118
    7.035      120
    7.050      109
    7.065      115
    7.080       99
    7.095      113
    7.110       93
    7.125       98
    7.140      115
    7.155      129
    7.170      109
    7.185      110
    7.200      111
    7.215      116
    7.230      116
    7.245      118
    7.260      108
    7.275      107
    7.290      116
    7.305      102
    7.320       98
    7.335      101
    7.350      111
    7.365       98
    7.380      102
    7.395      110
    7.410      118
    7.425      105
    7.440       98
    7.455      113
    7.470      100
    7.485      104
    7.500       92
    7.515       96
    7.530      102
    7.545      108
    7.560      114
    7.575       94
    7.590       98
    7.605      115
    7.620      115
    7.635      109
    7.650      101
    7.665      117
    7.680      106
    7.695       97
    7.710       93
    7.725       97
    7.740      107
    7.755      101
    7.770      127
    7.785      114
    7.800       89
    7.815       99
    7.830      100
    7.845       96
    7.860      111
    7.875      122
    7.890      111
    7.905      108
    7.920      101
    7.935       98
    7.950      108
    7.965      109
    7.980       98
    7.995      112
    8.010      100
    8.025       79
    8.040       99
    8.055      114
    8.070      117
    8.085      114
    8.100      103
    8.115       97
    8.130      100
    8.145      110
    8.160      109
    8.175      113
    8.190      104
    8.205      105
    8.220      105
    8.235       89
    8.250      107
    8.265       91
    8.280      106
    8.295      116
    8.310      108
    8.325      105
    8.340      112
    8.355      111
    8.370      115
    8.385      109
    8.400       91
    8.415       97
    8.430      105
    8.445      106
    8.460      108
    8.475      101
    8.490      104
    8.505       98
    8.520      104
    8.535      122
    8.550      106
    8.565       93
    8.580      111
    8.595      113
    8.610      100
    8.625      114
    8.640       96
    8.655      116
    8.670       91
    8.685       95
    8.700      113
    8.715      104
    8.730       95
    8.745      100
    8.760      106
    8.775      102
    8.790      117
    8.805      103
    8.820       95
    8.835      104
    8.850       97
    8.865       97
    8.880      105
    8.895      112
    8.910      106
    8.925       85
    8.940       94
    8.955       94
    8.970      105
    8.985      110
    9.000      103
    9.015      102
    9.030      112
    9.045      122
    9.060      111
    9.075      107
    9.090       96
    9.105       93
    9.120      103
    9.135       98
    9.150      108
    9.165       99
    9.180       99
    9.195       98
    9.210       92
    9.225       85
    9.240       95
    9.255      103
    9.270      112
    9.285      127
    9.300      100
    9.315      101
    9.330      103
    9.345      100
    9.360      116
    9.375      103
    9.390       93
    9.405      104
    9.420      114
    9.435      115
    9.450      105
    9.465      104
    9.480       97
    9.495      102
    9.510       86
    9.525      103
    9.540       98
    9.555       95
    9.570      101
    9.585       97
    9.600      100
    9.615       97
    9.630       95
    9.645      102
    9.660       90
    9.675       98
    9.690      112
    9.705      121
    9.720       99
    9.735       98
    9.750      102
    9.765      109
    9.780      103
    9.795       99
    9.810       93
    9.825       97
    9.840       97
    9.855       92
    9.870      107
    9.885      107
    9.900      114
    9.915      106
    9.930       99
    9.945      104
    9.960       98
    9.975      101
    9.990       98
   10.005       88
   10.020       90
   10.035       95
   10.050       97
   10.065      102
   10.080      102
   10.095      100
   10.110      101
   10.125      105
   10.140      102
   10.155       96
   10.170      105
   10.185      102
   10.200       97
   10.215      113
   10.230      110
   10.245      107
   10.260      108
   10.275       98
   10.290       94
   10.305       94
   10.320      103
   10.335      113
   10.350      104
   10.365       98
   10.380      101
   10.395       89
   10.410      107
   10.425      104
   10.440       88
   10.455      105
   10.470      114
   10.485       99
   10.500      106
   10.515       97
   10.530      104
   10.545      120
   10.560       87
   10.575       95
   10.590       99
   10.605      112
   10.620      103
   10.635      114
   10.650       87
   10.665      101
   10.680      107
   10.695       96
   10.710       96
   10.725      109
   10.740       92
   10.755       93
   10.770       94
   10.785       95
   10.800       92
   10.815       90
   10.830      102
   10.845       99
   10.860       89
   10.875       94
   10.890      104
   10.905      113
   10.920       97
   10.935       90
   10.950       92
   10.965      104
   10.980      104
   10.995       98
   11.010       93
   11.025       86
   11.040       99
   11.055      104
   11.070       90
   11.085      110
   11.100      114
   11.115      102
   11.130      100
   11.145       89
   11.160       97
   11.175       99
   11.190      113
   11.205       96
   11.220       92
   11.235      102
   11.250      105
   11.265       93
   11.280       99
   11.295      103
   11.310      101
   11.325      103
   11.340       93
   11.355      104
   11.370      105
   11.385      105
   11.400       97
   11.415      114
   11.430       95
   11.445      112
   11.460      106
   11.475      101
   11.490       95
   11.505       99
   11.520       90
   11.535      100
   11.550      102
   11.565      109
   11.580      102
   11.595      102
   11.610       93
   11.625      104
   11.640       91
   11.655       94
   11.670       95
   11.685       87
   11.700       87
   11.715      100
   11.730      110
   11.745       99
   11.760      106
   11.775       93
   11.790       98
   11.805       89
   11.820      105
   11.835      100
   11.850       89
   11.865      117
   11.880      103
   11.895       92
   11.910       94
   11.925      103
   11.940       91
   11.955       82
   11.970       94
   11.985       87
   12.000       94
   12.015       87
   12.030       86
   12.045       95
   12.060      106
   12.075      101
   12.090      100
   12.105       89
   12.120      103
   12.135      103
   12.150       95
   12.165       94
   12.180      100
   12.195       93
   12.210       96
   12.225       94
   12.240       86
   12.255       88
   12.270       98
   12.285       88
   12.300       93
   12.315       98
   12.330      100
   12.345      119
   12.360      109
   12.375      100
   12.390       88
   12.405      100
   12.420       93
   12.435       97
   12.450       87
   12.465       90
   12.480       97
   12.495      100
   12.510      101
   12.525       99
   12.540       95
   12.555       99
   12.570      104
   12.585       98
   12.600      113
   12.615      108
   12.630       85
   12.645      110
   12.660      110
   12.675      100
   12.690      102
   12.705       99
   12.720      104
   12.735       86
   12.750       82
   12.765       84
   12.780      100
   12.795      100
   12.810      100
   12.825       94
   12.840       95
   12.855      106
   12.870       92
   12.885      105
   12.900      100
   12.915      103
   12.930      109
   12.945      110
   12.960      103
   12.975      103
   12.990      108
   13.005       94
   13.020      104
   13.035       82
   13.050       81
   13.065       83
   13.080       82
   13.095       94
   13.110       89
   13.125       88
   13.140       88
   13.155       93
   13.170      112
   13.185      110
   13.200       99
   13.215       86
   13.230       79
   13.245      100
   13.260       96
   13.275       94
   13.290       91
   13.305      100
   13.320       83
   13.335       87
   13.350       86
   13.365      103
   13.380       86
   13.395       87
   13.410       95
   13.425       98
   13.440       88
   13.455       82
   13.470       80
   13.485       84
   13.500      105
   13.515       94
   13.530       92
   13.545       95
   13.560      100
   13.575       95
   13.590       87
   13.605       85
   13.620       86
   13.635      100
   13.650      102
   13.665      105
   13.680       87
   13.695       95
   13.710       89
   13.725       92
   13.740      110
   13.755      115
   13.770      100
   13.785       97
   13.800       97
   13.815       94
   13.830       99
   13.845      100
   13.860       95
   13.875       98
   13.890       86
   13.905       93
   13.920       81
   13.935       90
   13.950       89
   13.965       98
   13.980       88
   13.995      100
   14.010       89
   14.025       92
   14.040       90
   14.055       88
   14.070      108
   14.085       95
   14.100       95
   14.115      101
   14.130       91
   14.145       92
   14.160      106
   14.175       96
   14.190       95
   14.205       89
   14.220       85
   14.235      102
   14.250      105
   14.265      107
   14.280       99
   14.295       94
   14.310      100
   14.325       88
   14.340      100
   14.355       94
   14.370       89
   14.385       86
   14.400       86
   14.415      100
   14.430       99
   14.445       98
   14.460       94
   14.475       96
   14.490       90
   14.505       83
   14.520       87
   14.535       85
   14.550      101
   14.565       96
   14.580       86
   14.595       89
   14.610       97
   14.625       93
   14.640       71
   14.655       99
   14.670       98
   14.685       69
   14.700       78
   14.715       74
   14.730       93
   14.745       95
   14.760       96
   14.775       90
   14.790       87
   14.805       99
   14.820       95
   14.835       85
   14.850      100
   14.865       87
   14.880       98
   14.895       93
   14.910       95
   14.925       95
   14.940       90
   14.955       99
   14.970       98
   14.985       93
   15.000       90
   15.015       93
   15.030       93
   15.045       76
   15.060       87
   15.075      103
   15.090       83
   15.105       92
   15.120       98
   15.135       89
   15.150       88
   15.165       80
   15.180       86
   15.195       90
   15.210       99
   15.225       85
   15.240       83
   15.255       81
   15.270       92
   15.285      100
   15.300       86
   15.315       86
   15.330       80
   15.345       93
   15.360       97
   15.375       94
   15.390       89
   15.405       95
   15.420       83
   15.435       81
   15.450       83
   15.465       77
   15.480       76
   15.495       77
   15.510       84
   15.525       88
   15.540       92
   15.555       96
   15.570       84
   15.585      100
   15.600       96
   15.615       93
   15.630       89
   15.645       85
   15.660       86
   15.675       88
   15.690       98
   15.705      104
   15.720       97
   15.735       81
   15.750       79
   15.765       81
   15.780       82
   15.795       87
   15.810       83
   15.825       96
   15.840       84
   15.855       79
   15.870      106
   15.885       85
   15.900       91
   15.915       83
   15.930       89
   15.945       86
   15.960       79
   15.975      103
   15.990       95
   16.005       97
   16.020       93
   16.035       97
   16.050      106
   16.065       98
   16.080       87
   16.095       95
   16.110       89
   16.125       85
   16.140       81
   16.155       88
   16.170       88
   16.185      116
   16.200       97
   16.215      105
   16.230      106
   16.245       96
   16.260       85
   16.275       86
   16.290       96
   16.305       95
   16.320       94
   16.335      108
   16.350       84
   16.365       85
   16.380       85
   16.395       94
   16.410      103
   16.425       98
   16.440       97
   16.455      100
   16.470       92
   16.485       82
   16.500       89
   16.515       86
   16.530       96
   16.545       93
   16.560      105
   16.575       89
   16.590       92
   16.605       97
   16.620       86
   16.635       92
   16.650       91
   16.665       98
   16.680       85
   16.695       84
   16.710      102
   16.725       98
   16.740       90
   16.755       93
   16.770       81
   16.785       76
   16.800       95
   16.815      107
   16.830      100
   16.845      103
   16.860       89
   16.875       84
   16.890       92
   16.905       73
   16.920       87
   16.935       90
   16.950      100
   16.965       90
   16.980       76
   16.995       82
   17.010       82
   17.025       93
   17.040      100
   17.055       95
   17.070       87
   17.085       81
   17.100       91
   17.115      102
   17.130       95
   17.145      104
   17.160       83
   17.175       86
   17.190       96
   17.205      107
   17.220       86
   17.235      105
   17.250       90
   17.265       87
   17.280       93
   17.295      102
   17.310       85
   17.325       74
   17.340       92
   17.355       86
   17.370       81
   17.385       87
   17.400       87
   17.415       73
   17.430       88
   17.445       90
   17.460       88
   17.475       91
   17.490       88
   17.505       91
   17.520       97
   17.535       94
   17.550       94
   17.565       93
   17.580       84
   17.595       81
   17.610       85
   17.625       92
   17.640       98
   17.655      101
   17.670       77
   17.685       98
   17.700      110
   17.715      110
   17.730      103
   17.745       99
   17.760       83
   17.775       89
   17.790       94
   17.805       81
   17.820       74
   17.835       85
   17.850       95
   17.865      117
   17.880       92
   17.895       98
   17.910       89
   17.925       89
   17.940       98
   17.955       95
   17.970       95
   17.985       93
   18.000       85
   18.015       76
   18.030       98
   18.045      103
   18.060       89
   18.075       92
   18.090       86
   18.105       85
   18.120       91
   18.135       95
   18.150       91
   18.165      101
   18.180       90
   18.195       89
   18.210      102
   18.225      100
   18.240       97
   18.255       79
   18.270       83
   18.285       92
   18.300       79
   18.315       92
   18.330      105
   18.345      101
   18.360       96
   18.375       93
   18.390      100
   18.405      110
   18.420      100
   18.435       92
   18.450       89
   18.465       95
   18.480       88
   18.495       90
   18.510       82
   18.525       83
   18.540       91
   18.555      100
   18.570      104
   18.585       84
   18.600       93
   18.615       92
   18.630       94
   18.645       80
   18.660       96
   18.675      119
   18.690      101
   18.705       97
   18.720       81
   18.735       88
   18.750      104
   18.765       92
   18.780       99
   18.795      112
   18.810      100
   18.825      101
   18.840       91
   18.855       96
   18.870       98
   18.885       93
   18.900      104
   18.915       94
   18.930      106
   18.945      100
   18.960       94
   18.975       91
   18.990       87
   19.005       89
   19.020       89
   19.035       89
   19.050       84
   19.065       94
   19.080      106
   19.095       91
   19.110       92
   19.125       92
   19.140       96
   19.155       98
   19.170       85
   19.185       83
   19.200      102
   19.215      103
   19.230       92
   19.245      102
   19.260      102
   19.275       91
   19.290       91
   19.305       93
   19.320       94
   19.335      105
   19.350       89
   19.365       85
   19.380       95
   19.395       93
   19.410       83
   19.425       93
   19.440       99
   19.455      100
   19.470       90
   19.485      101
   19.500       85
   19.515       81
   19.530       87
   19.545       97
   19.560       92
   19.575      104
   19.590       85
   19.605       95
   19.620       98
   19.635       87
   19.650       97
   19.665      101
   19.680       90
   19.695       95
   19.710      104
   19.725       86
   19.740       85
   19.755      101
   19.770      108
   19.785       97
   19.800      101
   19.815      102
   19.830       96
   19.845      106
   19.860      107
   19.875      107
   19.890       95
   19.905      103
   19.920       95
   19.935      103
   19.950      103
   19.965      113
   19.980      105
   19.995       97
   20.010       90
   20.025       88
   20.040       78
   20.055       84
   20.070      116
   20.085      116
   20.100       93
   20.115       93
   20.130      102
   20.145       91
   20.160       85
   20.175       87
   20.190       91
   20.205       97
   20.220       83
   20.235       83
   20.250       96
   20.265      101
   20.280      102
   20.295       96
   20.310       89
   20.325      102
   20.340       91
   20.355       91
   20.370       93
   20.385       99
   20.400       95
   20.415       99
   20.430       90
   20.445       93
   20.460       95
   20.475       90
   20.490       90
   20.505       94
   20.520       88
   20.535      101
   20.550      106
   20.565       98
   20.580       95
   20.595       83
   20.610       91
   20.625       96
   20.640      113
   20.655       83
   20.670       92
   20.685      104
   20.700      108
   20.715      100
   20.730       76
   20.745      110
   20.760       87
   20.775       86
   20.790       94
   20.805       92
   20.820      112
   20.835      103
   20.850       93
   20.865      102
   20.880       91
   20.895       90
   20.910       96
   20.925      108
   20.940      104
   20.955       88
   20.970       98
   20.985       95
   21.000       95
   21.015       90
   21.030       96
   21.045      103
   21.060       87
   21.075       98
   21.090       98
   21.105      107
   21.120      111
   21.135      104
   21.150      104
   21.165      100
   21.180       94
   21.195       96
   21.210      102
   21.225      104
   21.240       81
   21.255       96
   21.270       93
   21.285       99
   21.300      100
   21.315      102
   21.330      116
   21.345       92
   21.360       88
   21.375       99
   21.390      107
   21.405      109
   21.420       89
   21.435       91
   21.450       95
   21.465       85
   21.480       92
   21.495       90
   21.510      101
   21.525      116
   21.540       95
   21.555       92
   21.570      101
   21.585      115
   21.600      103
   21.615      109
   21.630      104
   21.645       94
   21.660       96
   21.675      105
   21.690       98
   21.705      105
   21.720       97
   21.735      112
   21.750      104
   21.765       86
   21.780      110
   21.795       90
   21.810       95
   21.825       98
   21.840       98
   21.855      104
   21.870       99
   21.885       95
   21.900       91
   21.915       86
   21.930      102
   21.945      107
   21.960       95
   21.975       97
   21.990      110
   22.005      106
   22.020      100
   22.035       99
   22.050      100
   22.065      101
   22.080       96
   22.095       93
   22.110      106
   22.125       93
   22.140      105
   22.155       99
   22.170       93
   22.185       81
   22.200       80
   22.215       92
   22.230      106
   22.245      110
   22.260       91
   22.275       94
   22.290      101
   22.305      104
   22.320       98
   22.335      101
   22.350      102
   22.365       79
   22.380      101
   22.395       90
   22.410       99
   22.425       93
   22.440       95
   22.455      113
   22.470      103
   22.485       91
   22.500       95
   22.515       92
   22.530       76
   22.545       86
   22.560      106
   22.575      113
   22.590       99
   22.605       95
   22.620       88
   22.635      103
   22.650       91
   22.665       98
   22.680       87
   22.695       96
   22.710       96
   22.725       98
   22.740      105
   22.755       97
   22.770       89
   22.785      109
   22.800      104
   22.815       94
   22.830       91
   22.845       96
   22.860       87
   22.875       89
   22.890      103
   22.905       87
   22.920       87
   22.935       98
   22.950      108
   22.965      106
   22.980       83
   22.995       97
   23.010       96
   23.025       96
   23.040       95
   23.055       99
   23.070       95
   23.085       88
   23.100      106
   23.115      115
   23.130      103
   23.145      113
   23.160      103
   23.175      101
   23.190       95
   23.205       87
   23.220       90
   23.235      102
   23.250      100
   23.265       98
   23.280       95
   23.295       98
   23.310       99
   23.325       94
   23.340       88
   23.355       94
   23.370       87
   23.385       94
   23.400       86
   23.415       88
   23.430       84
   23.445      100
   23.460       94
   23.475       95
   23.490      102
   23.505      111
   23.520       90
   23.535       85
   23.550       83
   23.565      100
   23.580       92
   23.595       96
   23.610      109
   23.625       93
   23.640       94
   23.655      106
   23.670      104
   23.685       99
   23.700       95
   23.715       88
   23.730      117
   23.745       89
   23.760       94
   23.775       97
   23.790       84
   23.805       92
   23.820       82
   23.835       98
   23.850      106
   23.865       97
   23.880       95
   23.895      102
   23.910       93
   23.925      110
   23.940      101
   23.955       92
   23.970       92
   23.985       94
   24.000       90
   24.015      103
   24.030      105
   24.045       92
   24.060       99
   24.075       96
   24.090      111
   24.105      106
   24.120      114
   24.135       98
   24.150       90
   24.165       93
   24.180      103
   24.195       91
   24.210       90
   24.225      109
   24.240      113
   24.255       98
   24.270       99
   24.285      102
   24.300       89
   24.315      109
   24.330      103
   24.345       97
   24.360       84
   24.375       79
   24.390       84
   24.405       87
   24.420      102
   24.435       95
   24.450       92
   24.465       91
   24.480      101
   24.495       88
   24.510       85
   24.525       86
   24.540       94
   24.555       99
   24.570       98
   24.585       93
   24.600       85
   24.615      101
   24.630       94
   24.645       89
   24.660       78
   24.675      114
   24.690      103
   24.705       90
   24.720       79
   24.735       97
   24.750       95
   24.765       91
   24.780      100
   24.795      103
   24.810       90
   24.825       89
   24.840      102
   24.855       99
   24.870       96
   24.885       91
   24.900       91
   24.915       95
   24.930       82
   24.945       96
   24.960       86
   24.975      107
   24.990      101
   25.005      100
   25.020       96
   25.035       89
   25.050      102
   25.065       95
   25.080      104
   25.095       93
   25.110       79
   25.125       92
   25.140      101
   25.155       86
   25.170      105
   25.185       93
   25.200       89
   25.215      103
   25.230       90
   25.245       96
   25.260      100
   25.275       96
   25.290       92
   25.305      101
   25.320       87
   25.335       85
   25.350       97
   25.365       90
   25.380       86
   25.395      100
   25.410      100
   25.425       88
   25.440      108
   25.455       97
   25.470       91
   25.485      105
   25.500      102
   25.515      100
   25.530       98
   25.545       84
   25.560       88
   25.575       97
   25.590      103
   25.605       97
   25.620       93
   25.635       94
   25.650       88
   25.665       99
   25.680      104
   25.695       98
   25.710       92
   25.725       82
   25.740      100
   25.755      102
   25.770       94
   25.785       94
   25.800       87
   25.815       86
   25.830       96
   25.845       94
   25.860      101
   25.875       89
   25.890       82
   25.905       80
   25.920       75
   25.935       88
   25.950       78
   25.965       97
   25.980       88
   25.995       85
   26.010       87
   26.025       87
   26.040       95
   26.055       81
   26.070       88
   26.085       90
   26.100       92
   26.115       86
   26.130       90
   26.145       85
   26.160       84
   26.175       93
   26.190       87
   26.205       97
   26.220       93
   26.235       94
   26.250       92
   26.265      101
   26.280       91
   26.295       87
   26.310       78
   26.325       90
   26.340       96
   26.355       80
   26.370       79
   26.385      102
   26.400       86
   26.415       85
   26.430       82
   26.445       86
   26.460       81
   26.475       82
   26.490       77
   26.505       77
   26.520       88
   26.535       83
   26.550       92
   26.565       88
   26.580       86
   26.595       85
   26.610       85
   26.625       82
   26.640       74
   26.655       89
   26.670       88
   26.685       87
   26.700       89
   26.715      102
   26.730       97
   26.745       80
   26.760       75
   26.775       89
   26.790       83
   26.805       83
   26.820       83
   26.835       82
   26.850       81
   26.865      100
   26.880       84
   26.895       86
   26.910       97
   26.925       84
   26.940       85
   26.955       94
   26.970       86
   26.985       76
   27.000       87
   27.015       82
   27.030       95
   27.045       98
   27.060       81
   27.075       85
   27.090       81
   27.105       86
   27.120       91
   27.135       92
   27.150       80
   27.165       82
   27.180       92
   27.195       91
   27.210       88
   27.225       89
   27.240       82
   27.255       87
   27.270       81
   27.285       98
   27.300       86
   27.315       94
   27.330       71
   27.345       69
   27.360       93
   27.375       88
   27.390       87
   27.405       81
   27.420       82
   27.435       78
   27.450       79
   27.465       87
   27.480       80
   27.495       77
   27.510       82
   27.525       93
   27.540       90
   27.555       80
   27.570       77
   27.585       84
   27.600       81
   27.615       84
   27.630       76
   27.645       80
   27.660       83
   27.675       81
   27.690       81
   27.705       72
   27.720       81
   27.735       82
   27.750       84
   27.765       87
   27.780       95
   27.795       87
   27.810       84
   27.825       88
   27.840       90
   27.855       88
   27.870       93
   27.885       94
   27.900       80
   27.915       83
   27.930       77
   27.945       94
   27.960       92
   27.975       90
   27.990       74
   28.005       74
   28.020       94
   28.035       96
   28.050       88
   28.065       82
   28.080       81
   28.095       78
   28.110       74
   28.125       90
   28.140       82
   28.155       79
   28.170       77
   28.185       86
   28.200       73
   28.215       81
   28.230       83
   28.245       86
   28.260       87
   28.275       90
   28.290       76
   28.305       79
   28.320       81
   28.335       73
   28.350       83
   28.365       69
   28.380       80
   28.395       82
   28.410       84
   28.425       94
   28.440       93
   28.455       88
   28.470       75
   28.485       85
   28.500       89
   28.515       73
   28.530       85
   28.545       90
   28.560       94
   28.575       75
   28.590       78
   28.605       88
   28.620       78
   28.635       70
   28.650       69
   28.665       72
   28.680       74
   28.695       78
   28.710       82
   28.725       76
   28.740       78
   28.755       80
   28.770       76
   28.785       73
   28.800       78
   28.815       87
   28.830       91
   28.845       76
   28.860       73
   28.875       80
   28.890       80
   28.905       94
   28.920       80
   28.935       87
   28.950       84
   28.965       79
   28.980      102
   28.995       96
   29.010       79
   29.025       79
   29.040       78
   29.055       80
   29.070       79
   29.085       77
   29.100       73
   29.115       75
   29.130       77
   29.145       77
   29.160       74
   29.175       74
   29.190       71
   29.205       77
   29.220       68
   29.235       78
   29.250       79
   29.265       81
   29.280       89
   29.295       80
   29.310       69
   29.325       68
   29.340       73
   29.355       88
   29.370       71
   29.385       67
   29.400       80
   29.415       80
   29.430       74
   29.445       80
   29.460       83
   29.475       77
   29.490       78
   29.505       70
   29.520       66
   29.535       82
   29.550       79
   29.565       74
   29.580       78
   29.595       92
   29.610       94
   29.625       84
   29.640       82
   29.655       89
   29.670       84
   29.685       77
   29.700       72
   29.715       78
   29.730       78
   29.745       79
   29.760       77
   29.775       78
   29.790       71
   29.805       78
   29.820       82
   29.835       87
   29.850       84
   29.865       74
   29.880       75
   29.895       87
   29.910       77
   29.925       80
   29.940       76
   29.955       69
   29.970       82
   29.985       82
   30.000       71
   30.015       70
   30.030       76
   30.045       76
   30.060       77
   30.075       69
   30.090       72
   30.105       55
   30.120       89
   30.135       83
   30.150       85
   30.165       76
   30.180       83
   30.195       74
   30.210       78
   30.225       78
   30.240       81
   30.255       86
   30.270       70
   30.285       73
   30.300       68
   30.315       62
   30.330       70
   30.345       71
   30.360       73
   30.375       84
   30.390       72
   30.405       72
   30.420       77
   30.435       79
   30.450       72
   30.465       68
   30.480       94
   30.495       82
   30.510       76
   30.525       84
   30.540       70
   30.555       70
   30.570       68
   30.585       70
   30.600       89
   30.615       87
   30.630       77
   30.645       73
   30.660       75
   30.675       67
   30.690       69
   30.705       82
   30.720       89
   30.735       83
   30.750       68
   30.765       77
   30.780       78
   30.795       73
   30.810       79
   30.825       75
   30.840       66
   30.855       72
   30.870       67
   30.885       72
   30.900       76
   30.915       79
   30.930       63
   30.945       58
   30.960       68
   30.975       83
   30.990       82
   31.005       77
   31.020       67
   31.035       58
   31.050       61
   31.065       70
   31.080       62
   31.095       63
   31.110       72
   31.125       67
   31.140       61
   31.155       75
   31.170       70
   31.185       75
   31.200       66
   31.215       67
   31.230       78
   31.245       68
   31.260       75
   31.275       85
   31.290       71
   31.305       66
   31.320       72
   31.335       71
   31.350       67
   31.365       74
   31.380       59
   31.395       71
   31.410       84
   31.425       65
   31.440       63
   31.455       69
   31.470       64
   31.485       73
   31.500       66
   31.515       65
   31.530       81
   31.545       70
   31.560       68
   31.575       77
   31.590       68
   31.605       73
   31.620       67
   31.635       67
   31.650       53
   31.665       64
   31.680       63
   31.695       67
   31.710       75
   31.725       66
   31.740       70
   31.755       66
   31.770       60
   31.785       76
   31.800       59
   31.815       63
   31.830       66
   31.845       72
   31.860       67
   31.875       69
   31.890       58
   31.905       64
   31.920       75
   31.935       62
   31.950       47
   31.965       58
   31.980       77
   31.995       62
   32.010       61
   32.025       60
   32.040       68
   32.055       73
   32.070       64
   32.085       59
   32.100       64
   32.115       75
   32.130       70
   32.145       63
   32.160       71
   32.175       72
   32.190       68
   32.205       70
   32.220       61
   32.235       73
   32.250       71
   32.265       77
   32.280       58
   32.295       60
   32.310       64
   32.325       75
   32.340       63
   32.355       62
   32.370       66
   32.385       72
   32.400       69
   32.415       71
   32.430       68
   32.445       63
   32.460       67
   32.475       66
   32.490       58
   32.505       65
   32.520       57
   32.535       60
   32.550       58
   32.565       55
   32.580       71
   32.595       72
   32.610       69
   32.625       68
   32.640       61
   32.655       63
   32.670       57
   32.685       53
   32.700       68
   32.715       66
   32.730       65
   32.745       67
   32.760       64
   32.775       57
   32.790       43
   32.805       55
   32.820       69
   32.835       67
   32.850       70
   32.865       69
   32.880       59
   32.895       60
   32.910       67
   32.925       63
   32.940       65
   32.955       58
   32.970       70
   32.985       76
   33.000       65
   33.015       63
   33.030       61
   33.045       58
   33.060       58
   33.075       63
   33.090       62
   33.105       55
   33.120       59
   33.135       73
   33.150       59
   33.165       62
   33.180       56
   33.195       59
   33.210       71
   33.225       72
   33.240       51
   33.255       55
   33.270       58
   33.285       54
   33.300       47
   33.315       54
   33.330       65
   33.345       64
   33.360       56
   33.375       58
   33.390       54
   33.405       64
   33.420       60
   33.435       56
   33.450       52
   33.465       56
   33.480       54
   33.495       57
   33.510       51
   33.525       77
   33.540       64
   33.555       62
   33.570       62
   33.585       68
   33.600       62
   33.615       56
   33.630       61
   33.645       59
   33.660       56
   33.675       53
   33.690       57
   33.705       62
   33.720       62
   33.735       60
   33.750       54
   33.765       59
   33.780       60
   33.795       61
   33.810       56
   33.825       60
   33.840       64
   33.855       69
   33.870       56
   33.885       54
   33.900       49
   33.915       55
   33.930       52
   33.945       55
   33.960       58
   33.975       62
   33.990       63
   34.005       59
   34.020       59
   34.035       47
   34.050       54
   34.065       62
   34.080       50
   34.095       47
   34.110       64
   34.125       62
   34.140       55
   34.155       49
   34.170       60
   34.185       61
   34.200       61
   34.215       57
   34.230       54
   34.245       58
   34.260       60
   34.275       61
   34.290       60
   34.305       55
   34.320       61
   34.335       67
   34.350       60
   34.365       53
   34.380       53
   34.395       55
   34.410       58
   34.425       47
   34.440       50
   34.455       53
   34.470       59
   34.485       60
   34.500       51
   34.515       52
   34.530       51
   34.545       54
   34.560       56
   34.575       51
   34.590       55
   34.605       65
   34.620       61
   34.635       61
   34.650       51
   34.665       45
   34.680       48
   34.695       50
   34.710       61
   34.725       56
   34.740       57
   34.755       51
   34.770       52
   34.785       54
   34.800       54
   34.815       58
   34.830       59
   34.845       57
   34.860       54
   34.875       57
   34.890       50
   34.905       53
   34.920       50
   34.935       42
   34.950       47
   34.965       52
   34.980       58
   34.995       64
   35.010       45
   35.025       53
   35.040       51
   35.055       52
   35.070       59
   35.085       45
   35.100       50
   35.115       51
   35.130       63
   35.145       69
   35.160       63
   35.175       62
   35.190       52
   35.205       53
   35.220       51
   35.235       41
   35.250       44
   35.265       49
   35.280       68
   35.295       53
   35.310       48
   35.325       53
   35.340       55
   35.355       51
   35.370       51
   35.385       39
   35.400       47
   35.415       50
   35.430       53
   35.445       49
   35.460       47
   35.475       47
   35.490       43
   35.505       45
   35.520       43
   35.535       49
   35.550       52
   35.565       41
   35.580       54
   35.595       53
   35.610       53
   35.625       52
   35.640       53
   35.655       48
   35.670       55
   35.685       54
   35.700       55
   35.715       48
   35.730       46
   35.745       47
   35.760       46
   35.775       47
   35.790       47
   35.805       55
   35.820       54
   35.835       57
   35.850       38
   35.865       49
   35.880       49
   35.895       45
   35.910       45
   35.925       55
   35.940       50
   35.955       43
   35.970       51
   35.985       42
   36.000       60
   36.015       55
   36.030       39
   36.045       35
   36.060       46
   36.075       47
   36.090       43
   36.105       48
   36.120       43
   36.135       43
   36.150       44
   36.165       53
   36.180       55
   36.195       56
   36.210       48
   36.225       40
   36.240       48
   36.255       46
   36.270       49
   36.285       42
   36.300       42
   36.315       56
   36.330       45
   36.345       49
   36.360       55
   36.375       49
   36.390       38
   36.405       40
   36.420       46
   36.435       38
   36.450       40
   36.465       36
   36.480       38
   36.495       41
   36.510       46
   36.525       42
   36.540       42
   36.555       48
   36.570       51
   36.585       55
   36.600       46
   36.615       41
   36.630       49
   36.645       44
   36.660       33
   36.675       43
   36.690       39
   36.705       40
   36.720       42
   36.735       47
   36.750       42
   36.765       41
   36.780       41
   36.795       42
   36.810       45
   36.825       44
   36.840       42
   36.855       36
   36.870       44
   36.885       46
   36.900       53
   36.915       51
   36.930       41
   36.945       53
   36.960       49
   36.975       46
   36.990       33
   37.005       40
   37.020       48
   37.035       46
   37.050       54
   37.065       43
   37.080       33
   37.095       35
   37.110       41
   37.125       43
   37.140       45
   37.155       34
   37.170       44
   37.185       38
   37.200       43
   37.215       39
   37.230       42
   37.245       32
   37.260       43
   37.275       47
   37.290       49
   37.305       41
   37.320       42
   37.335       53
   37.350       40
   37.365       44
   37.380       44
   37.395       53
   37.410       37
   37.425       39
   37.440       40
   37.455       42
   37.470       38
   37.485       44
   37.500       46
   37.515       42
   37.530       44
   37.545       46
   37.560       50
   37.575       44
   37.590       33
   37.605       37
   37.620       40
   37.635       43
   37.650       45
   37.665       45
   37.680       40
   37.695       45
   37.710       41
   37.725       39
   37.740       31
   37.755       42
   37.770       38
   37.785       37
   37.800       46
   37.815       41
   37.830       35
   37.845       39
   37.860       45
   37.875       32
   37.890       37
   37.905       45
   37.920       44
   37.935       45
   37.950       47
   37.965       43
   37.980       38
   37.995       37
   38.010       34
   38.025       30
   38.040       43
   38.055       36
   38.070       44
   38.085       38
   38.100       38
   38.115       31
   38.130       36
   38.145       42
   38.160       38
   38.175       43
   38.190       38
   38.205       40
   38.220       38
   38.235       47
   38.250       35
   38.265       39
   38.280       37
   38.295       39
   38.310       34
   38.325       38
   38.340       46
   38.355       38
   38.370       38
   38.385       34
   38.400       35
   38.415       33
   38.430       35
   38.445       39
   38.460       35
   38.475       35
   38.490       46
   38.505       39
   38.520       43
   38.535       43
   38.550       39
   38.565       41
   38.580       46
   38.595       40
   38.610       27
   38.625       38
   38.640       35
   38.655       32
   38.670       33
   38.685       45
   38.700       42
   38.715       42
   38.730       43
   38.745       31
   38.760       27
   38.775       48
   38.790       44
   38.805       39
   38.820       37
   38.835       37
   38.850       35
   38.865       35
   38.880       28
   38.895       36
   38.910       42
   38.925       41
   38.940       33
   38.955       43
   38.970       35
   38.985       33
   39.000       48
   39.015       38
   39.030       30
   39.045       37
   39.060       41
   39.075       43
   39.090       43
   39.105       35
   39.120       30
   39.135       37
   39.150       40
   39.165       26
   39.180       38
   39.195       41
   39.210       39
   39.225       34
   39.240       48
   39.255       42
   39.270       40
   39.285       43
   39.300       35
   39.315       28
   39.330       36
   39.345       39
   39.360       38
   39.375       26
   39.390       36
   39.405       39
   39.420       38
   39.435       48
   39.450       47
   39.465       35
   39.480       35
   39.495       50
   39.510       39
   39.525       33
   39.540       39
   39.555       38
   39.570       37
   39.585       32
   39.600       39
   39.615       34
   39.630       34
   39.645       33
   39.660       41
   39.675       34
   39.690       39
   39.705       32
   39.720       29
   39.735       31
   39.750       35
   39.765       30
   39.780       33
   39.795       35
   39.810       38
   39.825       35
   39.840       33
   39.855       35
   39.870       38
   39.885       39
   39.900       42
   39.915       51
   39.930       45
   39.945       40
   39.960       41
   39.975       38
   39.990       36
   40.005       37
   40.020       36
   40.035       25
   40.050       34
   40.065       34
   40.080       36
   40.095       43
   40.110       35
   40.125       36
   40.140       33
   40.155       37
   40.170       26
   40.185       44
   40.200       44
   40.215       37
   40.230       39
   40.245       41
   40.260       35
   40.275       36
   40.290       42
   40.305       33
   40.320       38
   40.335       34
   40.350       39
   40.365       33
   40.380       43
   40.395       33
   40.410       35
   40.425       36
   40.440       37
   40.455       44
   40.470       32
   40.485       33
   40.500       44
   40.515       35
   40.530       33
   40.545       42
   40.560       40
   40.575       41
   40.590       46
   40.605       33
   40.620       39
   40.635       38
   40.650       32
   40.665       29
   40.680       36
   40.695       39
   40.710       34
   40.725       43
   40.740       32
   40.755       33
   40.770       39
   40.785       34
   40.800       39
   40.815       38
   40.830       39
   40.845       36
   40.860       35
   40.875       29
   40.890       33
   40.905       31
   40.920       34
   40.935       41
   40.950       31
   40.965       47
   40.980       34
   40.995       39
   41.010       38
   41.025       30
   41.040       26
   41.055       29
   41.070       34
   41.085       33
   41.100       38
   41.115       31
   41.130       31
   41.145       36
   41.160       38
   41.175       33
   41.190       45
   41.205       45
   41.220       32
   41.235       34
   41.250       37
   41.265       42
   41.280       35
   41.295       35
   41.310       39
   41.325       35
   41.340       39
   41.355       34
   41.370       34
   41.385       39
   41.400       37
   41.415       33
   41.430       28
   41.445       38
   41.460       37
   41.475       34
   41.490       35
   41.505       35
   41.520       38
   41.535       31
   41.550       37
   41.565       37
   41.580       38
   41.595       36
   41.610       42
   41.625       34
   41.640       42
   41.655       39
   41.670       36
   41.685       40
   41.700       37
   41.715       40
   41.730       29
   41.745       33
   41.760       45
   41.775       36
   41.790       30
   41.805       40
   41.820       35
   41.835       37
   41.850       32
   41.865       40
   41.880       37
   41.895       29
   41.910       26
   41.925       38
   41.940       37
   41.955       35
   41.970       30
   41.985       27
   42.000       27
   42.015       27
   42.030       41
   42.045       33
   42.060       31
   42.075       33
   42.090       31
   42.105       34
   42.120       29
   42.135       42
   42.150       33
   42.165       38
   42.180       49
   42.195       27
   42.210       36
   42.225       40
   42.240       37
   42.255       37
   42.270       30
   42.285       35
   42.300       35
   42.315       42
   42.330       35
   42.345       36
   42.360       37
   42.375       35
   42.390       41
   42.405       37
   42.420       33
   42.435       37
   42.450       30
   42.465       30
   42.480       29
   42.495       24
   42.510       31
   42.525       33
   42.540       25
   42.555       30
   42.570       30
   42.585       28
   42.600       35
   42.615       41
   42.630       40
   42.645       36
   42.660       33
   42.675       41
   42.690       39
   42.705       34
   42.720       39
   42.735       38
   42.750       32
   42.765       31
   42.780       26
   42.795       37
   42.810       35
   42.825       27
   42.840       25
   42.855       27
   42.870       32
   42.885       35
   42.900       32
   42.915       39
   42.930       45
   42.945       29
   42.960       33
   42.975       38
   42.990       32
   43.005       31
   43.020       35
   43.035       28
   43.050       37
   43.065       25
   43.080       30
   43.095       33
   43.110       39
   43.125       40
   43.140       31
   43.155       28
   43.170       31
   43.185       35
   43.200       37
   43.215       35
   43.230       36
   43.245       37
   43.260       33
   43.275       31
   43.290       37
   43.305       34
   43.320       32
   43.335       39
   43.350       30
   43.365       35
   43.380       34
   43.395       34
   43.410       44
   43.425       35
   43.440       34
   43.455       38
   43.470       34
   43.485       34
   43.500       29
   43.515       29
   43.530       30
   43.545       35
   43.560       31
   43.575       33
   43.590       31
   43.605       41
   43.620       43
   43.635       30
   43.650       29
   43.665       37
   43.680       36
   43.695       39
   43.710       35
   43.725       31
   43.740       31
   43.755       33
   43.770       43
   43.785       32
   43.800       26
   43.815       28
   43.830       37
   43.845       39
   43.860       43
   43.875       36
   43.890       30
   43.905       32
   43.920       31
   43.935       27
   43.950       36
   43.965       36
   43.980       34
   43.995       35
   44.010       34
   44.025       31
   44.040       41
   44.055       36
   44.070       31
   44.085       35
   44.100       41
   44.115       37
   44.130       34
   44.145       29
   44.160       29
   44.175       32
   44.190       30
   44.205       25
   44.220       25
   44.235       27
   44.250       34
   44.265       38
   44.280       38
   44.295       38
   44.310       28
   44.325       37
   44.340       30
   44.355       35
   44.370       32
   44.385       28
   44.400       31
   44.415       32
   44.430       31
   44.445       39
   44.460       35
   44.475       34
   44.490       31
   44.505       35
   44.520       32
   44.535       26
   44.550       33
   44.565       29
   44.580       34
   44.595       34
   44.610       34
   44.625       35
   44.640       37
   44.655       28
   44.670       38
   44.685       23
   44.700       27
   44.715       37
   44.730       33
   44.745       24
   44.760       35
   44.775       39
   44.790       31
   44.805       35
   44.820       41
   44.835       35
   44.850       36
   44.865       29
   44.880       34
   44.895       33
   44.910       38
   44.925       37
   44.940       39
   44.955       38
   44.970       27
   44.985       23
   45.000       29
   45.015       42
   45.030       38
   45.045       34
   45.060       23
   45.075       29
   45.090       30
   45.105       27
   45.120       37
   45.135       33
   45.150       43
   45.165       47
   45.180       33
   45.195       33
   45.210       26
   45.225       36
   45.240       33
   45.255       32
   45.270       28
   45.285       33
   45.300       28
   45.315       38
   45.330       30
   45.345       35
   45.360       27
   45.375       28
   45.390       31
   45.405       35
   45.420       28
   45.435       21
   45.450       42
   45.465       29
   45.480       35
   45.495       31
   45.510       31
   45.525       30
   45.540       27
   45.555       27
   45.570       25
   45.585       31
   45.600       31
   45.615       30
   45.630       35
   45.645       38
   45.660       32
   45.675       41
   45.690       33
   45.705       29
   45.720       34
   45.735       34
   45.750       30
   45.765       28
   45.780       30
   45.795       32
   45.810       22
   45.825       24
   45.840       33
   45.855       37
   45.870       38
   45.885       34
   45.900       41
   45.915       29
   45.930       25
   45.945       32
   45.960       38
   45.975       27
   45.990       25
   46.005       31
   46.020       34
   46.035       25
   46.050       37
   46.065       36
   46.080       43
   46.095       37
   46.110       30
   46.125       29
   46.140       25
   46.155       30
   46.170       26
   46.185       24
   46.200       32
   46.215       32
   46.230       32
   46.245       28
   46.260       24
   46.275       22
   46.290       20
   46.305       23
   46.320       26
   46.335       26
   46.350       22
   46.365       29
   46.380       25
   46.395       30
   46.410       31
   46.425       27
   46.440       31
   46.455       26
   46.470       30
   46.485       27
   46.500       25
   46.515       19
   46.530       35
   46.545       29
   46.560       29
   46.575       28
   46.590       30
   46.605       36
   46.620       34
   46.635       33
   46.650       26
   46.665       29
   46.680       36
   46.695       41
   46.710       32
   46.725       28
   46.740       23
   46.755       32
   46.770       23
   46.785       27
   46.800       28
   46.815       31
   46.830       28
   46.845       28
   46.860       33
   46.875       27
   46.890       24
   46.905       39
   46.920       33
   46.935       26
   46.950       25
   46.965       27
   46.980       30
   46.995       32
   47.010       38
   47.025       29
   47.040       29
   47.055       30
   47.070       32
   47.085       25
   47.100       31
   47.115       35
   47.130       29
   47.145       34
   47.160       40
   47.175       43
   47.190       29
   47.205       24
   47.220       29
   47.235       27
   47.250       22
   47.265       29
   47.280       23
   47.295       36
   47.310       32
   47.325       44
   47.340       39
   47.355       34
   47.370       30
   47.385       27
   47.400       24
   47.415       35
   47.430       33
   47.445       25
   47.460       27
   47.475       27
   47.490       33
   47.505       29
   47.520       25
   47.535       25
   47.550       32
   47.565       27
   47.580       26
   47.595       25
   47.610       33
   47.625       32
   47.640       32
   47.655       33
   47.670       29
   47.685       31
   47.700       28
   47.715       29
   47.730       38
   47.745       30
   47.760       22
   47.775       32
   47.790       41
   47.805       27
   47.820       27
   47.835       21
   47.850       31
   47.865       35
   47.880       30
   47.895       29
   47.910       24
   47.925       25
   47.940       27
   47.955       25
   47.970       24
   47.985       22
   48.000       28
   48.015       36
   48.030       32
   48.045       30
   48.060       35
   48.075       29
   48.090       28
   48.105       26
   48.120       28
   48.135       21
   48.150       32
   48.165       28
   48.180       32
   48.195       28
   48.210       21
   48.225       25
   48.240       33
   48.255       34
   48.270       33
   48.285       28
   48.300       27
   48.315       22
   48.330       20
   48.345       31
   48.360       18
   48.375       28
   48.390       33
   48.405       37
   48.420       33
   48.435       33
   48.450       30
   48.465       33
   48.480       27
   48.495       23
   48.510       26
   48.525       27
   48.540       25
   48.555       28
   48.570       26
   48.585       34
   48.600       37
   48.615       28
   48.630       23
   48.645       25
   48.660       24
   48.675       37
   48.690       35
   48.705       29
   48.720       28
   48.735       25
   48.750       31
   48.765       31
   48.780       34
   48.795       25
   48.810       28
   48.825       27
   48.840       35
   48.855       28
   48.870       34
   48.885       26
   48.900       23
   48.915       26
   48.930       27
   48.945       29
   48.960       24
   48.975       41
   48.990       35
   49.005       27
   49.020       25
   49.035       32
   49.050       30
   49.065       25
   49.080       23
   49.095       36
   49.110       29
   49.125       26
   49.140       25
   49.155       32
   49.170       22
   49.185       29
   49.200       33
   49.215       29
   49.230       23
   49.245       30
   49.260       34
   49.275       29
   49.290       32
   49.305       27
   49.320       25
   49.335       33
   49.350       24
   49.365       28
   49.380       29
   49.395       27
   49.410       28
   49.425       24
   49.440       29
   49.455       34
   49.470       23
   49.485       21
   49.500       28
   49.515       19
   49.530       20
   49.545       25
   49.560       19
   49.575       17
   49.590       28
   49.605       22
   49.620       23
   49.635       25
   49.650       31
   49.665       34
   49.680       25
   49.695       24
   49.710       37
   49.725       35
   49.740       39
   49.755       31
   49.770       24
   49.785       26
   49.800       26
   49.815       30
   49.830       23
   49.845       25
   49.860       24
   49.875       25
   49.890       28
   49.905       26
   49.920       27
   49.935       25
   49.950       28
   49.965       32
   49.980       25
