    1.500     2325
    1.515     2357
    1.530     2292
    1.545     2260
    1.560     2215
    1.575     2192
    1.590     2157
    1.605     2163
    1.620     2090
    1.635     2048
    1.650     1973
    1.665     1861
    1.680     1929
    1.695     1921
    1.710     1912
    1.725     1896
    1.740     1871
    1.755     1820
    1.770     1797
    1.785     1784
    1.800     1745
    1.815     1675
    1.830     1670
    1.845     1704
    1.860     1655
    1.875     1625
    1.890     1628
    1.905     1593
    1.920     1573
    1.935     1545
    1.950     1496
    1.965     1512
    1.980     1514
    1.995     1517
    2.010     1506
    2.025     1570
    2.040     1507
    2.055     1452
    2.070     1458
    2.085     1481
    2.100     1435
    2.115     1426
    2.130     1482
    2.145     1437
    2.160     1466
    2.175     1444
    2.190     1439
    2.205     1477
    2.220     1346
    2.235     1391
    2.250     1415
    2.265     1400
    2.280     1405
    2.295     1378
    2.310     1395
    2.325     1387
    2.340     1443
    2.355     1398
    2.370     1346
    2.385     1395
    2.400     1412
    2.415     1429
    2.430     1455
    2.445     1406
    2.460     1426
    2.475     1421
    2.490     1478
    2.505     1503
    2.520     1430
    2.535     1466
    2.550     1443
    2.565     1473
    2.580     1499
    2.595     1536
    2.610     1544
    2.625     1536
    2.640     1506
    2.655     1579
    2.670     1577
    2.685     1595
    2.700     1573
    2.715     1639
    2.730     1720
    2.745     1668
    2.760     1703
    2.775     1757
    2.790     1719
    2.805     1747
    2.820     1820
    2.835     1829
    2.850     1892
    2.865     1850
    2.880     1914
    2.895     1943
    2.910     1978
    2.925     2159
    2.940     2070
    2.955     2131
    2.970     2260
    2.985     2263
    3.000     2332
    3.015     2414
    3.030     2422
    3.045     2516
    3.060     2631
    3.075     2624
    3.090     2733
    3.105     2805
    3.120     2818
    3.135     2942
    3.150     3060
    3.165     3182
    3.180     3392
    3.195     3450
    3.210     3474
    3.225     3652
    3.240     3841
    3.255     3936
    3.270     4133
    3.285     4298
    3.300     4417
    3.315     4688
    3.330     5116
    3.345     5335
    3.360     5512
    3.375     5823
    3.390     6109
    3.405     6400
    3.420     6623
    3.435     6846
    3.450     6954
    3.465     6893
    3.480     6716
    3.495     6413
    3.510     6051
    3.525     5740
    3.540     5368
    3.555     5110
    3.570     4730
    3.585     4432
    3.600     4221
    3.615     3985
    3.630     3790
    3.645     3711
    3.660     3648
    3.675     3625
    3.690     3604
    3.705     3679
    3.720     3634
    3.735     3770
    3.750     3844
    3.765     3869
    3.780     4029
    3.795     4243
    3.810     4405
    3.825     4606
    3.840     5055
    3.855     5467
    3.870     6043
    3.885     5993
    3.900     5754
    3.915     4962
    3.930     4075
    3.945     3113
    3.960     2711
    3.975     2634
    3.990     2551
    4.005     2487
    4.020     2479
    4.035     2481
    4.050     2357
    4.065     2302
    4.080     2241
    4.095     2271
    4.110     2185
    4.125     2052
    4.140     2012
    4.155     1980
    4.170     1851
    4.185     1879
    4.200     1743
    4.215     1668
    4.230     1614
    4.245     1609
    4.260     1461
    4.275     1389
    4.290     1364
    4.305     1314
    4.320     1301
    4.335     1213
    4.350     1166
    4.365     1176
    4.380     1129
    4.395     1078
    4.410     1001
    4.425     1001
    4.440     1025
    4.455      973
    4.470      926
    4.485      885
    4.500      913
    4.515      893
    4.530      814
    4.545      796
    4.560      795
    4.575      773
    4.590      778
    4.605      740
    4.620      720
    4.635      743
    4.650      722
    4.665      704
    4.680      706
    4.695      691
    4.710      713
    4.725      687
    4.740      686
    4.755      692
    4.770      668
    4.785      615
    4.800      636
    4.815      662
    4.830      612
    4.845      617
    4.860      617
    4.875      606
    4.890      620
    4.905      637
    4.920      633
    4.935      610
    4.950      636
    4.965      609
    4.980      617
    4.995      623
    5.010      563
    5.025      595
    5.040      622
    5.055      629
    5.070      641
    5.085      630
    5.100      608
    5.115      636
    5.130      603
    5.145      595
    5.160      600
    5.175      617
    5.190      617
    5.205      625
    5.220      603
    5.235      635
    5.250      685
    5.265      692
    5.280      671
    5.295      676
    5.310      681
    5.325      652
    5.340      699
    5.355      760
    5.370      741
    5.385      798
    5.400      786
    5.415      819
    5.430      853
    5.445      883
    5.460     1006
    5.475     1092
    5.490     1189
    5.505     1216
    5.520     1175
    5.535     1036
    5.550      830
    5.565      665
    5.580      574
    5.595      524
    5.610      490
    5.625      486
    5.640      507
    5.655      505
    5.670      505
    5.685      489
    5.700      505
    5.715      470
    5.730      499
    5.745      455
    5.760      451
    5.775      453
    5.790      453
    5.805      481
    5.820      487
    5.835      479
    5.850      483
    5.865      464
    5.880      462
    5.895      478
    5.910      476
    5.925      469
    5.940      454
    5.955      479
    5.970      496
    5.985      469
    6.000      456
    6.015      484
    6.030      485
    6.045      479
    6.060      501
    6.075      468
    6.090      487
    6.105      469
    6.120      461
    6.135      444
    6.150      458
    6.165      463
    6.180      470
    6.195      476
    6.210      450
    6.225      477
    6.240      497
    6.255      487
    6.270      467
    6.285      500
    6.300      485
    6.315      470
    6.330      512
    6.345      530
    6.360      518
    6.375      497
    6.390      509
    6.405      491
    6.420      509
    6.435      489
    6.450      542
    6.465      514
    6.480      494
    6.495      492
    6.510      521
    6.525      571
    6.540      548
    6.555      562
    6.570      573
    6.585      569
    6.600      590
    6.615      589
    6.630      592
    6.645      631
    6.660      650
    6.675      649
    6.690      717
    6.705      696
    6.720      764
    6.735      801
    6.750      783
    6.765      805
    6.780      806
    6.795      808
    6.810      735
    6.825      729
    6.840      783
    6.855      798
    6.870      827
    6.885      860
    6.900      884
    6.915      877
    6.930      966
    6.945      969
    6.960      932
    6.975      931
    6.990      906
    7.005      871
    7.020      886
    7.035      820
    7.050      777
    7.065      722
    7.080      706
    7.095      682
    7.110      651
    7.125      606
    7.140      589
    7.155      578
    7.170      548
    7.185      569
    7.200      557
    7.215      565
    7.230      536
    7.245      517
    7.260      521
    7.275      529
    7.290      523
    7.305      520
    7.320      520
    7.335      526
    7.350      524
    7.365      495
    7.380      498
    7.395      496
    7.410      541
    7.425      521
    7.440      523
    7.455      508
    7.470      518
    7.485      504
    7.500      518
    7.515      527
    7.530      500
    7.545      487
    7.560      480
    7.575      519
    7.590      576
    7.605      532
    7.620      571
    7.635      572
    7.650      573
    7.665      575
    7.680      602
    7.695      568
    7.710      571
    7.725      634
    7.740      613
    7.755      599
    7.770      674
    7.785      676
    7.800      716
    7.815      710
    7.830      682
    7.845      651
    7.860      577
    7.875      598
    7.890      594
    7.905      568
    7.920      592
    7.935      586
    7.950      592
    7.965      610
    7.980      583
    7.995      559
    8.010      577
    8.025      577
    8.040      598
    8.055      573
    8.070      562
    8.085      607
    8.100      606
    8.115      598
    8.130      601
    8.145      607
    8.160      579
    8.175      535
    8.190      575
    8.205      602
    8.220      594
    8.235      578
    8.250      538
    8.265      572
    8.280      565
    8.295      597
    8.310      563
    8.325      554
    8.340      568
    8.355      559
    8.370      523
    8.385      522
    8.400      504
    8.415      539
    8.430      549
    8.445      528
    8.460      514
    8.475      486
    8.490      506
    8.505      538
    8.520      524
    8.535      514
    8.550      529
    8.565      513
    8.580      499
    8.595      500
    8.610      490
    8.625      475
    8.640      494
    8.655      485
    8.670      491
    8.685      504
    8.700      488
    8.715      522
    8.730      516
    8.745      500
    8.760      467
    8.775      482
    8.790      457
    8.805      437
    8.820      449
    8.835      458
    8.850      463
    8.865      452
    8.880      462
    8.895      444
    8.910      455
    8.925      458
    8.940      423
    8.955      460
    8.970      461
    8.985      446
    9.000      431
    9.015      427
    9.030      418
    9.045      471
    9.060      448
    9.075      435
    9.090      438
    9.105      431
    9.120      437
    9.135      459
    9.150      448
    9.165      421
    9.180      420
    9.195      477
    9.210      461
    9.225      453
    9.240      460
    9.255      461
    9.270      461
    9.285      446
    9.300      452
    9.315      455
    9.330      445
    9.345      488
    9.360      497
    9.375      433
    9.390      479
    9.405      499
    9.420      507
    9.435      513
    9.450      518
    9.465      537
    9.480      512
    9.495      566
    9.510      607
    9.525      667
    9.540      686
    9.555      719
    9.570      748
    9.585      718
    9.600      699
    9.615      597
    9.630      490
    9.645      443
    9.660      445
    9.675      416
    9.690      436
    9.705      415
    9.720      406
    9.735      389
    9.750      414
    9.765      428
    9.780      396
    9.795      370
    9.810      424
    9.825      414
    9.840      420
    9.855      406
    9.870      407
    9.885      400
    9.900      397
    9.915      429
    9.930      406
    9.945      430
    9.960      393
    9.975      407
    9.990      392
   10.005      424
   10.020      425
   10.035      406
   10.050      418
   10.065      448
   10.080      431
   10.095      445
   10.110      430
   10.125      460
   10.140      444
   10.155      431
   10.170      430
   10.185      454
   10.200      442
   10.215      421
   10.230      448
   10.245      435
   10.260      460
   10.275      536
   10.290      480
   10.305      523
   10.320      530
   10.335      532
   10.350      534
   10.365      526
   10.380      522
   10.395      482
   10.410      487
   10.425      468
   10.440      434
   10.455      433
   10.470      454
   10.485      463
   10.500      421
   10.515      402
   10.530      449
   10.545      452
   10.560      425
   10.575      437
   10.590      415
   10.605      376
   10.620      406
   10.635      416
   10.650      424
   10.665      407
   10.680      425
   10.695      427
   10.710      410
   10.725      392
   10.740      381
   10.755      395
   10.770      454
   10.785      456
   10.800      399
   10.815      417
   10.830      423
   10.845      417
   10.860      402
   10.875      408
   10.890      425
   10.905      413
   10.920      418
   10.935      416
   10.950      402
   10.965      449
   10.980      462
   10.995      450
   11.010      453
   11.025      487
   11.040      523
   11.055      542
   11.070      493
   11.085      502
   11.100      488
   11.115      446
   11.130      421
   11.145      422
   11.160      401
   11.175      420
   11.190      405
   11.205      425
   11.220      397
   11.235      392
   11.250      427
   11.265      393
   11.280      414
   11.295      410
   11.310      407
   11.325      411
   11.340      445
   11.355      427
   11.370      414
   11.385      415
   11.400      380
   11.415      412
   11.430      435
   11.445      419
   11.460      425
   11.475      403
   11.490      428
   11.505      418
   11.520      395
   11.535      428
   11.550      454
   11.565      426
   11.580      395
   11.595      421
   11.610      415
   11.625      436
   11.640      449
   11.655      434
   11.670      465
   11.685      473
   11.700      517
   11.715      528
   11.730      508
   11.745      520
   11.760      515
   11.775      489
   11.790      466
   11.805      415
   11.820      416
   11.835      440
   11.850      449
   11.865      425
   11.880      406
   11.895      417
   11.910      417
   11.925      429
   11.940      407
   11.955      449
   11.970      447
   11.985      414
   12.000      430
   12.015      412
   12.030      409
   12.045      430
   12.060      410
   12.075      421
   12.090      448
   12.105      427
   12.120      450
   12.135      425
   12.150      415
   12.165      409
   12.180      412
   12.195      409
   12.210      426
   12.225      400
   12.240      421
   12.255      432
   12.270      435
   12.285      435
   12.300      434
   12.315      413
   12.330      457
   12.345      448
   12.360      434
   12.375      451
   12.390      452
   12.405      455
   12.420      417
   12.435      407
   12.450      414
   12.465      445
   12.480      424
   12.495      412
   12.510      425
   12.525      423
   12.540      432
   12.555      430
   12.570      421
   12.585      414
   12.600      417
   12.615      450
   12.630      433
   12.645      475
   12.660      444
   12.675      431
   12.690      435
   12.705      418
   12.720      441
   12.735      433
   12.750      422
   12.765      432
   12.780      452
   12.795      429
   12.810      437
   12.825      403
   12.840      444
   12.855      466
   12.870      460
   12.885      470
   12.900      474
   12.915      464
   12.930      470
   12.945      492
   12.960      492
   12.975      446
   12.990      490
   13.005      483
   13.020      477
   13.035      464
   13.050      413
   13.065      422
   13.080      390
   13.095      403
   13.110      403
   13.125      395
   13.140      412
   13.155      413
   13.170      405
   13.185      422
   13.200      407
   13.215      404
   13.230      402
   13.245      394
   13.260      423
   13.275      464
   13.290      412
   13.305      442
   13.320      474
   13.335      412
   13.350      431
   13.365      452
   13.380      422
   13.395      392
   13.410      380
   13.425      409
   13.440      441
   13.455      410
   13.470      403
   13.485      414
   13.500      396
   13.515      440
   13.530      433
   13.545      455
   13.560      437
   13.575      422
   13.590      436
   13.605      420
   13.620      423
   13.635      432
   13.650      423
   13.665      394
   13.680      408
   13.695      388
   13.710      411
   13.725      406
   13.740      403
   13.755      394
   13.770      419
   13.785      415
   13.800      390
   13.815      386
   13.830      416
   13.845      412
   13.860      400
   13.875      429
   13.890      422
   13.905      419
   13.920      406
   13.935      394
   13.950      413
   13.965      407
   13.980      406
   13.995      400
   14.010      391
   14.025      416
   14.040      437
   14.055      414
   14.070      438
   14.085      471
   14.100      470
   14.115      483
   14.130      490
   14.145      435
   14.160      446
   14.175      425
   14.190      433
   14.205      418
   14.220      431
   14.235      396
   14.250      408
   14.265      395
   14.280      394
   14.295      405
   14.310      402
   14.325      402
   14.340      415
   14.355      401
   14.370      398
   14.385      380
   14.400      391
   14.415      399
   14.430      403
   14.445      413
   14.460      407
   14.475      377
   14.490      378
   14.505      374
   14.520      390
   14.535      408
   14.550      409
   14.565      392
   14.580      390
   14.595      426
   14.610      409
   14.625      395
   14.640      384
   14.655      385
   14.670      386
   14.685      364
   14.700      383
   14.715      417
   14.730      396
   14.745      395
   14.760      405
   14.775      374
   14.790      398
   14.805      398
   14.820      394
   14.835      392
   14.850      380
   14.865      393
   14.880      414
   14.895      378
   14.910      401
   14.925      405
   14.940      408
   14.955      374
   14.970      371
   14.985      416
   15.000      393
   15.015      390
   15.030      403
   15.045      411
   15.060      387
   15.075      388
   15.090      405
   15.105      403
   15.120      385
   15.135      400
   15.150      396
   15.165      421
   15.180      401
   15.195      415
   15.210      418
   15.225      408
   15.240      418
   15.255      416
   15.270      381
   15.285      399
   15.300      409
   15.315      384
   15.330      359
   15.345      387
   15.360      404
   15.375      430
   15.390      379
   15.405      392
   15.420      376
   15.435      399
   15.450      427
   15.465      397
   15.480      402
   15.495      418
   15.510      388
   15.525      381
   15.540      396
   15.555      376
   15.570      419
   15.585      434
   15.600      413
   15.615      391
   15.630      406
   15.645      376
   15.660      393
   15.675      385
   15.690      395
   15.705      394
   15.720      398
   15.735      426
   15.750      409
   15.765      368
   15.780      396
   15.795      405
   15.810      389
   15.825      374
   15.840      380
   15.855      386
   15.870      378
   15.885      411
   15.900      398
   15.915      393
   15.930      403
   15.945      399
   15.960      384
   15.975      379
   15.990      396
   16.005      400
   16.020      366
   16.035      373
   16.050      386
   16.065      384
   16.080      383
   16.095      386
   16.110      450
   16.125      406
   16.140      415
   16.155      402
   16.170      385
   16.185      417
   16.200      420
   16.215      381
   16.230      387
   16.245      399
   16.260      422
   16.275      400
   16.290      377
   16.305      390
   16.320      390
   16.335      367
   16.350      401
   16.365      402
   16.380      379
   16.395      402
   16.410      432
   16.425      381
   16.440      413
   16.455      399
   16.470      392
   16.485      404
   16.500      416
   16.515      420
   16.530      395
   16.545      409
   16.560      400
   16.575      409
   16.590      398
   16.605      388
   16.620      404
   16.635      400
   16.650      406
   16.665      405
   16.680      402
   16.695      406
   16.710      386
   16.725      374
   16.740      400
   16.755      409
   16.770      391
   16.785      379
   16.800      396
   16.815      395
   16.830      379
   16.845      393
   16.860      403
   16.875      387
   16.890      375
   16.905      378
   16.920      391
   16.935      382
   16.950      398
   16.965      387
   16.980      401
   16.995      411
   17.010      402
   17.025      425
   17.040      439
   17.055      437
   17.070      442
   17.085      439
   17.100      429
   17.115      440
   17.130      413
   17.145      434
   17.160      441
   17.175      397
   17.190      395
   17.205      392
   17.220      402
   17.235      410
   17.250      380
   17.265      406
   17.280      409
   17.295      384
   17.310      373
   17.325      393
   17.340      393
   17.355      409
   17.370      402
   17.385      355
   17.400      366
   17.415      398
   17.430      390
   17.445      378
   17.460      380
   17.475      386
   17.490      388
   17.505      431
   17.520      457
   17.535      436
   17.550      409
   17.565      391
   17.580      398
   17.595      386
   17.610      398
   17.625      415
   17.640      404
   17.655      383
   17.670      416
   17.685      377
   17.700      419
   17.715      396
   17.730      410
   17.745      416
   17.760      411
   17.775      435
   17.790      432
   17.805      402
   17.820      433
   17.835      415
   17.850      405
   17.865      374
   17.880      408
   17.895      422
   17.910      419
   17.925      404
   17.940      402
   17.955      402
   17.970      409
   17.985      401
   18.000      413
   18.015      408
   18.030      394
   18.045      386
   18.060      409
   18.075      413
   18.090      396
   18.105      398
   18.120      441
   18.135      412
   18.150      375
   18.165      387
   18.180      406
   18.195      407
   18.210      402
   18.225      379
   18.240      389
   18.255      372
   18.270      407
   18.285      402
   18.300      420
   18.315      425
   18.330      406
   18.345      413
   18.360      408
   18.375      394
   18.390      421
   18.405      420
   18.420      440
   18.435      406
   18.450      400
   18.465      424
   18.480      398
   18.495      395
   18.510      427
   18.525      399
   18.540      388
   18.555      396
   18.570      376
   18.585      429
   18.600      436
   18.615      421
   18.630      364
   18.645      379
   18.660      396
   18.675      410
   18.690      405
   18.705      403
   18.720      396
   18.735      386
   18.750      411
   18.765      421
   18.780      413
   18.795      404
   18.810      409
   18.825      423
   18.840      397
   18.855      409
   18.870      416
   18.885      396
   18.900      388
   18.915      394
   18.930      378
   18.945      391
   18.960      411
   18.975      430
   18.990      425
   19.005      423
   19.020      413
   19.035      406
   19.050      385
   19.065      406
   19.080      384
   19.095      401
   19.110      391
   19.125      388
   19.140      386
   19.155      403
   19.170      407
   19.185      415
   19.200      446
   19.215      426
   19.230      434
   19.245      414
   19.260      422
   19.275      385
   19.290      407
   19.305      402
   19.320      418
   19.335      418
   19.350      415
   19.365      409
   19.380      409
   19.395      415
   19.410      370
   19.425      421
   19.440      418
   19.455      389
   19.470      373
   19.485      394
   19.500      410
   19.515      438
   19.530      436
   19.545      451
   19.560      437
   19.575      406
   19.590      433
   19.605      440
   19.620      430
   19.635      440
   19.650      441
   19.665      427
   19.680      448
   19.695      456
   19.710      443
   19.725      434
   19.740      416
   19.755      418
   19.770      416
   19.785      429
   19.800      421
   19.815      431
   19.830      427
   19.845      444
   19.860      420
   19.875      415
   19.890      402
   19.905      433
   19.920      422
   19.935      433
   19.950      411
   19.965      385
   19.980      392
   19.995      409
   20.010      422
   20.025      419
   20.040      433
   20.055      394
   20.070      432
   20.085      425
   20.100      427
   20.115      426
   20.130      395
   20.145      448
   20.160      435
   20.175      420
   20.190      411
   20.205      442
   20.220      431
   20.235      437
   20.250      446
   20.265      429
   20.280      445
   20.295      439
   20.310      459
   20.325      455
   20.340      434
   20.355      434
   20.370      463
   20.385      440
   20.400      415
   20.415      394
   20.430      438
   20.445      459
   20.460      448
   20.475      460
   20.490      429
   20.505      442
   20.520      407
   20.535      429
   20.550      418
   20.565      425
   20.580      417
   20.595      439
   20.610      424
   20.625      416
   20.640      408
   20.655      419
   20.670      407
   20.685      412
   20.700      455
   20.715      427
   20.730      447
   20.745      412
   20.760      426
   20.775      422
   20.790      405
   20.805      414
   20.820      437
   20.835      459
   20.850      441
   20.865      452
   20.880      425
   20.895      422
   20.910      433
   20.925      438
   20.940      425
   20.955      409
   20.970      439
   20.985      448
   21.000      430
   21.015      444
   21.030      446
   21.045      407
   21.060      416
   21.075      436
   21.090      437
   21.105      411
   21.120      445
   21.135      432
   21.150      401
   21.165      461
   21.180      420
   21.195      429
   21.210      445
   21.225      404
   21.240      367
   21.255      394
   21.270      399
   21.285      434
   21.300      420
   21.315      422
   21.330      444
   21.345      414
   21.360      426
   21.375      419
   21.390      440
   21.405      438
   21.420      435
   21.435      413
   21.450      439
   21.465      412
   21.480      414
   21.495      418
   21.510      437
   21.525      427
   21.540      420
   21.555      451
   21.570      429
   21.585      440
   21.600      441
   21.615      437
   21.630      419
   21.645      451
   21.660      429
   21.675      392
   21.690      410
   21.705      432
   21.720      423
   21.735      448
   21.750      438
   21.765      414
   21.780      443
   21.795      449
   21.810      398
   21.825      459
   21.840      459
   21.855      479
   21.870      460
   21.885      440
   21.900      401
   21.915      457
   21.930      462
   21.945      481
   21.960      459
   21.975      461
   21.990      462
   22.005      441
   22.020      429
   22.035      438
   22.050      431
   22.065      417
   22.080      426
   22.095      420
   22.110      428
   22.125      415
   22.140      431
   22.155      438
   22.170      420
   22.185      406
   22.200      436
   22.215      435
   22.230      423
   22.245      445
   22.260      442
   22.275      459
   22.290      435
   22.305      405
   22.320      436
   22.335      415
   22.350      414
   22.365      434
   22.380      435
   22.395      419
   22.410      399
   22.425      430
   22.440      422
   22.455      419
   22.470      444
   22.485      433
   22.500      439
   22.515      469
   22.530      451
   22.545      464
   22.560      463
   22.575      483
   22.590      488
   22.605      466
   22.620      472
   22.635      477
   22.650      484
   22.665      457
   22.680      432
   22.695      437
   22.710      407
   22.725      454
   22.740      406
   22.755      415
   22.770      404
   22.785      417
   22.800      455
   22.815      446
   22.830      435
   22.845      418
   22.860      448
   22.875      467
   22.890      466
   22.905      474
   22.920      492
   22.935      453
   22.950      492
   22.965      480
   22.980      454
   22.995      442
   23.010      473
   23.025      468
   23.040      433
   23.055      439
   23.070      446
   23.085      452
   23.100      434
   23.115      424
   23.130      390
   23.145      417
   23.160      431
   23.175      423
   23.190      394
   23.205      432
   23.220      402
   23.235      430
   23.250      461
   23.265      431
   23.280      435
   23.295      426
   23.310      483
   23.325      484
   23.340      452
   23.355      416
   23.370      400
   23.385      425
   23.400      421
   23.415      424
   23.430      407
   23.445      405
   23.460      389
   23.475      402
   23.490      428
   23.505      460
   23.520      434
   23.535      402
   23.550      416
   23.565      415
   23.580      429
   23.595      415
   23.610      411
   23.625      423
   23.640      420
   23.655      405
   23.670      419
   23.685      431
   23.700      424
   23.715      432
   23.730      416
   23.745      402
   23.760      412
   23.775      428
   23.790      447
   23.805      406
   23.820      429
   23.835      435
   23.850      417
   23.865      449
   23.880      442
   23.895      438
   23.910      432
   23.925      444
   23.940      451
   23.955      425
   23.970      452
   23.985      447
   24.000      415
   24.015      427
   24.030      437
   24.045      415
   24.060      413
   24.075      412
   24.090      425
   24.105      398
   24.120      395
   24.135      447
   24.150      437
   24.165      431
   24.180      422
   24.195      424
   24.210      392
   24.225      403
   24.240      423
   24.255      418
   24.270      435
   24.285      443
   24.300      437
   24.315      408
   24.330      411
   24.345      414
   24.360      379
   24.375      372
   24.390      428
   24.405      392
   24.420      416
   24.435      441
   24.450      427
   24.465      439
   24.480      438
   24.495      427
   24.510      422
   24.525      406
   24.540      394
   24.555      423
   24.570      431
   24.585      425
   24.600      404
   24.615      425
   24.630      440
   24.645      438
   24.660      403
   24.675      403
   24.690      428
   24.705      425
   24.720      423
   24.735      412
   24.750      414
   24.765      399
   24.780      424
   24.795      420
   24.810      391
   24.825      400
   24.840      388
   24.855      375
   24.870      383
   24.885      416
   24.900      407
   24.915      400
   24.930      377
   24.945      412
   24.960      377
   24.975      394
   24.990      446
   25.005      415
   25.020      401
   25.035      417
   25.050      404
   25.065      386
   25.080      357
   25.095      392
   25.110      381
   25.125      407
   25.140      397
   25.155      405
   25.170      402
   25.185      413
   25.200      398
   25.215      412
   25.230      419
   25.245      396
   25.260      394
   25.275      395
   25.290      396
   25.305      412
   25.320      415
   25.335      460
   25.350      422
   25.365      395
   25.380      376
   25.395      397
   25.410      393
   25.425      406
   25.440      416
   25.455      409
   25.470      379
   25.485      433
   25.500      387
   25.515      401
   25.530      395
   25.545      413
   25.560      392
   25.575      406
   25.590      428
   25.605      397
   25.620      380
   25.635      404
   25.650      411
   25.665      403
   25.680      380
   25.695      406
   25.710      403
   25.725      402
   25.740      412
   25.755      377
   25.770      381
   25.785      384
   25.800      411
   25.815      425
   25.830      432
   25.845      446
   25.860      429
   25.875      406
   25.890      434
   25.905      448
   25.920      419
   25.935      408
   25.950      409
   25.965      394
   25.980      426
   25.995      387
   26.010      383
   26.025      385
   26.040      398
   26.055      392
   26.070      371
   26.085      389
   26.100      379
   26.115      400
   26.130      398
   26.145      387
   26.160      394
   26.175      389
   26.190      383
   26.205      392
   26.220      399
   26.235      370
   26.250      383
   26.265      399
   26.280      405
   26.295      400
   26.310      412
   26.325      404
   26.340      385
   26.355      377
   26.370      382
   26.385      386
   26.400      406
   26.415      413
   26.430      380
   26.445      383
   26.460      410
   26.475      380
   26.490      413
   26.505      418
   26.520      370
   26.535      379
   26.550      399
   26.565      373
   26.580      366
   26.595      392
   26.610      390
   26.625      372
   26.640      372
   26.655      364
   26.670      347
   26.685      367
   26.700      393
   26.715      381
   26.730      348
   26.745      373
   26.760      379
   26.775      369
   26.790      386
   26.805      386
   26.820      368
   26.835      349
   26.850      391
   26.865      384
   26.880      357
   26.895      402
   26.910      413
   26.925      375
   26.940      363
   26.955      340
   26.970      364
   26.985      370
   27.000      360
   27.015      399
   27.030      363
   27.045      373
   27.060      376
   27.075      363
   27.090      386
   27.105      386
   27.120      384
   27.135      380
   27.150      361
   27.165      380
   27.180      377
   27.195      354
   27.210      372
   27.225      355
   27.240      372
   27.255      366
   27.270      328
   27.285      358
   27.300      396
   27.315      381
   27.330      384
   27.345      385
   27.360      353
   27.375      380
   27.390      366
   27.405      383
   27.420      378
   27.435      400
   27.450      371
   27.465      373
   27.480      390
   27.495      379
   27.510      387
   27.525      385
   27.540      360
   27.555      385
   27.570      381
   27.585      375
   27.600      366
   27.615      370
   27.630      386
   27.645      380
   27.660      383
   27.675      378
   27.690      386
   27.705      376
   27.720      346
   27.735      392
   27.750      388
   27.765      399
   27.780      403
   27.795      401
   27.810      369
   27.825      410
   27.840      374
   27.855      365
   27.870      351
   27.885      373
   27.900      372
   27.915      365
   27.930      356
   27.945      359
   27.960      376
   27.975      355
   27.990      381
   28.005      366
   28.020      387
   28.035      400
   28.050      392
   28.065      380
   28.080      388
   28.095      381
   28.110      384
   28.125      369
   28.140      382
   28.155      376
   28.170      400
   28.185      389
   28.200      389
   28.215      391
   28.230      350
   28.245      350
   28.260      370
   28.275      371
   28.290      407
   28.305      409
   28.320      351
   28.335      392
   28.350      371
   28.365      401
   28.380      359
   28.395      371
   28.410      387
   28.425      373
   28.440      360
   28.455      397
   28.470      387
   28.485      379
   28.500      355
   28.515      389
   28.530      396
   28.545      390
   28.560      389
   28.575      397
   28.590      375
   28.605      367
   28.620      375
   28.635      367
   28.650      354
   28.665      389
   28.680      391
   28.695      365
   28.710      365
   28.725      380
   28.740      367
   28.755      372
   28.770      382
   28.785      376
   28.800      366
   28.815      355
   28.830      362
   28.845      382
   28.860      368
   28.875      377
   28.890      360
   28.905      363
   28.920      374
   28.935      373
   28.950      387
   28.965      389
   28.980      349
   28.995      348
   29.010      337
   29.025      353
   29.040      366
   29.055      351
   29.070      362
   29.085      389
   29.100      377
   29.115      364
   29.130      357
   29.145      365
   29.160      345
   29.175      335
   29.190      353
   29.205      342
   29.220      340
   29.235      372
   29.250      360
   29.265      368
   29.280      352
   29.295      372
   29.310      378
   29.325      394
   29.340      386
   29.355      378
   29.370      340
   29.385      349
   29.400      356
   29.415      366
   29.430      346
   29.445      346
   29.460      358
   29.475      348
   29.490      344
   29.505      335
   29.520      351
   29.535      350
   29.550      340
   29.565      365
   29.580      362
   29.595      346
   29.610      365
   29.625      391
   29.640      355
   29.655      334
   29.670      356
   29.685      363
   29.700      356
   29.715      344
   29.730      335
   29.745      341
   29.760      360
   29.775      338
   29.790      356
   29.805      367
   29.820      351
   29.835      368
   29.850      344
   29.865      364
   29.880      369
   29.895      366
   29.910      372
   29.925      345
   29.940      350
   29.955      387
   29.970      352
   29.985      374
   30.000      366
   30.015      356
   30.030      337
   30.045      355
   30.060      362
   30.075      363
   30.090      358
   30.105      342
   30.120      348
   30.135      359
   30.150      377
   30.165      398
   30.180      387
   30.195      362
   30.210      354
   30.225      333
   30.240      323
   30.255      315
   30.270      351
   30.285      362
   30.300      364
   30.315      332
   30.330      355
   30.345      345
   30.360      338
   30.375      321
   30.390      349
   30.405      350
   30.420      364
   30.435      341
   30.450      350
   30.465      345
   30.480      364
   30.495      339
   30.510      338
   30.525      367
   30.540      344
   30.555      371
   30.570      381
   30.585      356
   30.600      365
   30.615      377
   30.630      346
   30.645      330
   30.660      338
   30.675      345
   30.690      369
   30.705      368
   30.720      332
   30.735      347
   30.750      355
   30.765      346
   30.780      358
   30.795      350
   30.810      355
   30.825      345
   30.840      348
   30.855      323
   30.870      345
   30.885      339
   30.900      355
   30.915      346
   30.930      336
   30.945      347
   30.960      356
   30.975      315
   30.990      326
   31.005      346
   31.020      332
   31.035      348
   31.050      325
   31.065      360
   31.080      345
   31.095      331
   31.110      338
   31.125      331
   31.140      351
   31.155      331
   31.170      353
   31.185      350
   31.200      339
   31.215      319
   31.230      343
   31.245      332
   31.260      329
   31.275      342
   31.290      324
   31.305      339
   31.320      328
   31.335      345
   31.350      346
   31.365      351
   31.380      372
   31.395      329
   31.410      354
   31.425      331
   31.440      356
   31.455      352
   31.470      351
   31.485      325
   31.500      310
   31.515      329
   31.530      333
   31.545      333
   31.560      327
   31.575      324
   31.590      335
   31.605      349
   31.620      348
   31.635      356
   31.650      350
   31.665      330
   31.680      346
   31.695      332
   31.710      350
   31.725      343
   31.740      335
   31.755      325
   31.770      344
   31.785      370
   31.800      367
   31.815      373
   31.830      332
   31.845      355
   31.860      356
   31.875      346
   31.890      360
   31.905      363
   31.920      336
   31.935      309
   31.950      310
   31.965      351
   31.980      347
   31.995      362
   32.010      336
   32.025      348
   32.040      338
   32.055      337
   32.070      341
   32.085      375
   32.100      392
   32.115      365
   32.130      344
   32.145      357
   32.160      350
   32.175      348
   32.190      347
   32.205      351
   32.220      350
   32.235      320
   32.250      314
   32.265      349
   32.280      327
   32.295      313
   32.310      325
   32.325      354
   32.340      338
   32.355      340
   32.370      318
   32.385      334
   32.400      319
   32.415      328
   32.430      319
   32.445      295
   32.460      335
   32.475      319
   32.490      306
   32.505      304
   32.520      327
   32.535      315
   32.550      328
   32.565      334
   32.580      317
   32.595      342
   32.610      312
   32.625      308
   32.640      337
   32.655      305
   32.670      325
   32.685      347
   32.700      324
   32.715      326
   32.730      338
   32.745      346
   32.760      332
   32.775      325
   32.790      333
   32.805      323
   32.820      300
   32.835      322
   32.850      327
   32.865      323
   32.880      308
   32.895      283
   32.910      282
   32.925      295
   32.940      315
   32.955      342
   32.970      329
   32.985      325
   33.000      326
   33.015      314
   33.030      321
   33.045      311
   33.060      290
   33.075      328
   33.090      311
   33.105      328
   33.120      297
   33.135      293
   33.150      318
   33.165      301
   33.180      324
   33.195      302
   33.210      294
   33.225      314
   33.240      314
   33.255      297
   33.270      301
   33.285      334
   33.300      353
   33.315      316
   33.330      308
   33.345      318
   33.360      307
   33.375      285
   33.390      286
   33.405      291
   33.420      299
   33.435      308
   33.450      323
   33.465      318
   33.480      309
   33.495      290
   33.510      293
   33.525      309
   33.540      329
   33.555      307
   33.570      291
   33.585      296
   33.600      295
   33.615      290
   33.630      306
   33.645      310
   33.660      299
   33.675      312
   33.690      347
   33.705      333
   33.720      307
   33.735      314
   33.750      329
   33.765      321
   33.780      346
   33.795      334
   33.810      327
   33.825      339
   33.840      327
   33.855      322
   33.870      325
   33.885      322
   33.900      320
   33.915      296
   33.930      279
   33.945      327
   33.960      337
   33.975      308
   33.990      309
   34.005      326
   34.020      312
   34.035      296
   34.050      280
   34.065      291
   34.080      298
   34.095      313
   34.110      288
   34.125      285
   34.140      289
   34.155      319
   34.170      304
   34.185      312
   34.200      309
   34.215      289
   34.230      297
   34.245      306
   34.260      296
   34.275      290
   34.290      288
   34.305      286
   34.320      314
   34.335      317
   34.350      282
   34.365      281
   34.380      300
   34.395      279
   34.410      297
   34.425      289
   34.440      294
   34.455      288
   34.470      267
   34.485      307
   34.500      295
   34.515      273
   34.530      303
   34.545      324
   34.560      288
   34.575      254
   34.590      293
   34.605      313
   34.620      291
   34.635      307
   34.650      294
   34.665      295
   34.680      271
   34.695      301
   34.710      312
   34.725      295
   34.740      279
   34.755      295
   34.770      282
   34.785      299
   34.800      271
   34.815      297
   34.830      304
   34.845      309
   34.860      275
   34.875      290
   34.890      290
   34.905      272
   34.920      308
   34.935      309
   34.950      308
   34.965      272
   34.980      257
   34.995      287
   35.010      301
   35.025      298
   35.040      294
   35.055      290
   35.070      264
   35.085      267
   35.100      263
   35.115      275
   35.130      282
   35.145      292
   35.160      282
   35.175      289
   35.190      288
   35.205      288
   35.220      275
   35.235      275
   35.250      293
   35.265      305
   35.280      289
   35.295      272
   35.310      306
   35.325      300
   35.340      307
   35.355      287
   35.370      305
   35.385      300
   35.400      297
   35.415      278
   35.430      274
   35.445      274
   35.460      288
   35.475      288
   35.490      299
   35.505      285
   35.520      286
   35.535      285
   35.550      288
   35.565      265
   35.580      280
   35.595      272
   35.610      262
   35.625      311
   35.640      303
   35.655      272
   35.670      261
   35.685      268
   35.700      291
   35.715      281
   35.730      266
   35.745      288
   35.760      273
   35.775      281
   35.790      279
   35.805      283
   35.820      264
   35.835      265
   35.850      294
   35.865      286
   35.880      306
   35.895      294
   35.910      291
   35.925      273
   35.940      254
   35.955      263
   35.970      254
   35.985      271
   36.000      292
   36.015      291
   36.030      260
   36.045      260
   36.060      287
   36.075      286
   36.090      317
   36.105      300
   36.120      284
   36.135      280
   36.150      248
   36.165      277
   36.180      297
   36.195      305
   36.210      287
   36.225      267
   36.240      278
   36.255      291
   36.270      290
   36.285      281
   36.300      248
   36.315      260
   36.330      273
   36.345      277
   36.360      273
   36.375      278
   36.390      286
   36.405      292
   36.420      265
   36.435      298
   36.450      274
   36.465      264
   36.480      269
   36.495      282
   36.510      291
   36.525      277
   36.540      261
   36.555      293
   36.570      313
   36.585      256
   36.600      282
   36.615      297
   36.630      298
   36.645      257
   36.660      264
   36.675      274
   36.690      265
   36.705      252
   36.720      276
   36.735      267
   36.750      299
   36.765      290
   36.780      269
   36.795      279
   36.810      275
   36.825      285
   36.840      283
   36.855      271
   36.870      273
   36.885      273
   36.900      277
   36.915      256
   36.930      264
   36.945      275
   36.960      260
   36.975      266
   36.990      273
   37.005      275
   37.020      272
   37.035      283
   37.050      280
   37.065      293
   37.080      282
   37.095      263
   37.110      271
   37.125      265
   37.140      263
   37.155      257
   37.170      278
   37.185      253
   37.200      291
   37.215      285
   37.230      258
   37.245      288
   37.260      273
   37.275      289
   37.290      268
   37.305      247
   37.320      266
   37.335      293
   37.350      281
   37.365      267
   37.380      263
   37.395      294
   37.410      268
   37.425      272
   37.440      297
   37.455      294
   37.470      279
   37.485      252
   37.500      291
   37.515      271
   37.530      259
   37.545      277
   37.560      268
   37.575      278
   37.590      263
   37.605      269
   37.620      246
   37.635      249
   37.650      234
   37.665      270
   37.680      260
   37.695      249
   37.710      248
   37.725      280
   37.740      265
   37.755      279
   37.770      259
   37.785      278
   37.800      277
   37.815      249
   37.830      248
   37.845      250
   37.860      245
   37.875      260
   37.890      257
   37.905      248
   37.920      265
   37.935      281
   37.950      270
   37.965      265
   37.980      248
   37.995      246
   38.010      248
   38.025      238
   38.040      248
   38.055      247
   38.070      273
   38.085      275
   38.100      266
   38.115      263
   38.130      273
   38.145      258
   38.160      247
   38.175      263
   38.190      262
   38.205      274
   38.220      267
   38.235      250
   38.250      259
   38.265      273
   38.280      273
   38.295      285
   38.310      265
   38.325      272
   38.340      272
   38.355      244
   38.370      258
   38.385      262
   38.400      260
   38.415      286
   38.430      270
   38.445      238
   38.460      234
   38.475      245
   38.490      240
   38.505      255
   38.520      270
   38.535      256
   38.550      273
   38.565      272
   38.580      254
   38.595      222
   38.610      245
   38.625      253
   38.640      275
   38.655      246
   38.670      253
   38.685      264
   38.700      271
   38.715      260
   38.730      283
   38.745      277
   38.760      258
   38.775      265
   38.790      263
   38.805      255
   38.820      257
   38.835      255
   38.850      264
   38.865      273
   38.880      258
   38.895      243
   38.910      258
   38.925      260
   38.940      269
   38.955      263
   38.970      267
   38.985      246
   39.000      247
   39.015      256
   39.030      278
   39.045      242
   39.060      233
   39.075      249
   39.090      273
   39.105      247
   39.120      232
   39.135      271
   39.150      243
   39.165      251
   39.180      238
   39.195      270
   39.210      262
   39.225      249
   39.240      277
   39.255      303
   39.270      260
   39.285      247
   39.300      278
   39.315      279
   39.330      268
   39.345      249
   39.360      257
   39.375      262
   39.390      261
   39.405      249
   39.420      254
   39.435      246
   39.450      254
   39.465      273
   39.480      273
   39.495      237
   39.510      262
   39.525      257
   39.540      249
   39.555      244
   39.570      255
   39.585      281
   39.600      264
   39.615      258
   39.630      256
   39.645      270
   39.660      258
   39.675      253
   39.690      255
   39.705      263
   39.720      260
   39.735      256
   39.750      280
   39.765      267
   39.780      286
   39.795      273
   39.810      252
   39.825      238
   39.840      270
   39.855      278
   39.870      256
   39.885      254
   39.900      255
   39.915      254
   39.930      255
   39.945      278
   39.960      264
   39.975      269
   39.990      243
