    1.500      252
    1.515      237
    1.530      267
    1.545      260
    1.560      240
    1.575      233
    1.590      234
    1.605      224
    1.620      229
    1.635      237
    1.650      246
    1.665      245
    1.680      237
    1.695      236
    1.710      211
    1.725      233
    1.740      241
    1.755      245
    1.770      235
    1.785      228
    1.800      266
    1.815      241
    1.830      253
    1.845      271
    1.860      253
    1.875      247
    1.890      259
    1.905      259
    1.920      248
    1.935      260
    1.950      270
    1.965      246
    1.980      231
    1.995      262
    2.010      260
    2.025      287
    2.040      284
    2.055      268
    2.070      276
    2.085      285
    2.100      275
    2.115      271
    2.130      281
    2.145      297
    2.160      270
    2.175      268
    2.190      302
    2.205      269
    2.220      288
    2.235      309
    2.250      293
    2.265      284
    2.280      304
    2.295      309
    2.310      302
    2.325      294
    2.340      324
    2.355      323
    2.370      331
    2.385      316
    2.400      305
    2.415      335
    2.430      331
    2.445      339
    2.460      324
    2.475      326
    2.490      328
    2.505      361
    2.520      365
    2.535      383
    2.550      370
    2.565      369
    2.580      352
    2.595      386
    2.610      396
    2.625      419
    2.640      409
    2.655      418
    2.670      420
    2.685      469
    2.700      449
    2.715      463
    2.730      451
    2.745      464
    2.760      508
    2.775      494
    2.790      538
    2.805      549
    2.820      518
    2.835      536
    2.850      537
    2.865      507
    2.880      580
    2.895      584
    2.910      608
    2.925      589
    2.940      624
    2.955      646
    2.970      656
    2.985      692
    3.000      664
    3.015      717
    3.030      720
    3.045      719
    3.060      736
    3.075      751
    3.090      798
    3.105      809
    3.120      881
    3.135      944
    3.150      935
    3.165      985
    3.180     1003
    3.195     1060
    3.210     1094
    3.225     1155
    3.240     1223
    3.255     1283
    3.270     1330
    3.285     1426
    3.300     1525
    3.315     1536
    3.330     1679
    3.345     1759
    3.360     1908
    3.375     2039
    3.390     2129
    3.405     2144
    3.420     2177
    3.435     2161
    3.450     1967
    3.465     1696
    3.480     1445
    3.495     1242
    3.510     1126
    3.525      897
    3.540      800
    3.555      763
    3.570      660
    3.585      630
    3.600      660
    3.615      599
    3.630      632
    3.645      621
    3.660      611
    3.675      595
    3.690      604
    3.705      606
    3.720      608
    3.735      666
    3.750      635
    3.765      674
    3.780      683
    3.795      730
    3.810      755
    3.825      763
    3.840      766
    3.855      816
    3.870      859
    3.885      878
    3.900      917
    3.915      872
    3.930      926
    3.945      986
    3.960      954
    3.975      943
    3.990      974
    4.005      928
    4.020     1004
    4.035     1026
    4.050     1033
    4.065      963
    4.080      894
    4.095      881
    4.110      894
    4.125      838
    4.140      809
    4.155      725
    4.170      690
    4.185      668
    4.200      624
    4.215      608
    4.230      523
    4.245      508
    4.260      478
    4.275      388
    4.290      391
    4.305      389
    4.320      364
    4.335      314
    4.350      303
    4.365      320
    4.380      282
    4.395      269
    4.410      253
    4.425      239
    4.440      233
    4.455      219
    4.470      212
    4.485      226
    4.500      220
    4.515      209
    4.530      201
    4.545      189
    4.560      156
    4.575      186
    4.590      165
    4.605      194
    4.620      169
    4.635      182
    4.650      169
    4.665      166
    4.680      162
    4.695      149
    4.710      161
    4.725      178
    4.740      161
    4.755      148
    4.770      135
    4.785      151
    4.800      165
    4.815      148
    4.830      160
    4.845      161
    4.860      164
    4.875      141
    4.890      143
    4.905      157
    4.920      144
    4.935      148
    4.950      144
    4.965      156
    4.980      142
    4.995      158
    5.010      172
    5.025      156
    5.040      139
    5.055      143
    5.070      134
    5.085      139
    5.100      154
    5.115      156
    5.130      151
    5.145      145
    5.160      141
    5.175      139
    5.190      127
    5.205      137
    5.220      154
    5.235      146
    5.250      158
    5.265      146
    5.280      146
    5.295      143
    5.310      149
    5.325      153
    5.340      151
    5.355      160
    5.370      145
    5.385      134
    5.400      138
    5.415      135
    5.430      114
    5.445      123
    5.460      147
    5.475      156
    5.490      163
    5.505      163
    5.520      143
    5.535      142
    5.550      131
    5.565      156
    5.580      128
    5.595      122
    5.610      155
    5.625      154
    5.640      141
    5.655      131
    5.670      122
    5.685      157
    5.700      150
    5.715      159
    5.730      139
    5.745      137
    5.760      132
    5.775      143
    5.790      138
    5.805      135
    5.820      163
    5.835      153
    5.850      137
    5.865      120
    5.880      122
    5.895      134
    5.910      136
    5.925      161
    5.940      121
    5.955      132
    5.970      136
    5.985      124
    6.000      125
    6.015      137
    6.030      138
    6.045      129
    6.060      132
    6.075      140
    6.090      140
    6.105      128
    6.120      149
    6.135      142
    6.150      146
    6.165      133
    6.180      150
    6.195      164
    6.210      135
    6.225      152
    6.240      150
    6.255      141
    6.270      144
    6.285      154
    6.300      160
    6.315      152
    6.330      129
    6.345      142
    6.360      145
    6.375      153
    6.390      162
    6.405      148
    6.420      166
    6.435      155
    6.450      155
    6.465      152
    6.480      158
    6.495      166
    6.510      157
    6.525      154
    6.540      145
    6.555      166
    6.570      164
    6.585      168
    6.600      167
    6.615      186
    6.630      180
    6.645      208
    6.660      197
    6.675      190
    6.690      182
    6.705      195
    6.720      234
    6.735      242
    6.750      260
    6.765      245
    6.780      229
    6.795      248
    6.810      271
    6.825      274
    6.840      308
    6.855      311
    6.870      321
    6.885      340
    6.900      381
    6.915      362
    6.930      370
    6.945      329
    6.960      287
    6.975      267
    6.990      241
    7.005      228
    7.020      222
    7.035      197
    7.050      176
    7.065      170
    7.080      150
    7.095      182
    7.110      178
    7.125      173
    7.140      165
    7.155      152
    7.170      160
    7.185      130
    7.200      159
    7.215      123
    7.230      123
    7.245      142
    7.260      158
    7.275      151
    7.290      130
    7.305      126
    7.320      132
    7.335      155
    7.350      127
    7.365      136
    7.380      130
    7.395      141
    7.410      140
    7.425      152
    7.440      150
    7.455      139
    7.470      142
    7.485      154
    7.500      141
    7.515      147
    7.530      170
    7.545      149
    7.560      140
    7.575      141
    7.590      174
    7.605      159
    7.620      156
    7.635      149
    7.650      158
    7.665      157
    7.680      149
    7.695      169
    7.710      174
    7.725      157
    7.740      155
    7.755      162
    7.770      158
    7.785      154
    7.800      180
    7.815      166
    7.830      168
    7.845      167
    7.860      177
    7.875      182
    7.890      194
    7.905      208
    7.920      190
    7.935      186
    7.950      186
    7.965      199
    7.980      206
    7.995      204
    8.010      201
    8.025      215
    8.040      221
    8.055      221
    8.070      224
    8.085      199
    8.100      201
    8.115      205
    8.130      209
    8.145      225
    8.160      202
    8.175      214
    8.190      201
    8.205      213
    8.220      203
    8.235      215
    8.250      201
    8.265      197
    8.280      227
    8.295      215
    8.310      197
    8.325      188
    8.340      196
    8.355      207
    8.370      208
    8.385      206
    8.400      184
    8.415      174
    8.430      192
    8.445      190
    8.460      169
    8.475      174
    8.490      187
    8.505      158
    8.520      162
    8.535      165
    8.550      155
    8.565      165
    8.580      164
    8.595      176
    8.610      174
    8.625      150
    8.640      175
    8.655      173
    8.670      160
    8.685      168
    8.700      158
    8.715      148
    8.730      151
    8.745      151
    8.760      136
    8.775      149
    8.790      156
    8.805      139
    8.820      142
    8.835      132
    8.850      134
    8.865      150
    8.880      140
    8.895      118
    8.910      125
    8.925      132
    8.940      135
    8.955      140
    8.970      142
    8.985      136
    9.000      136
    9.015      136
    9.030      140
    9.045      143
    9.060      143
    9.075      129
    9.090      123
    9.105      107
    9.120      112
    9.135      121
    9.150      117
    9.165      129
    9.180      137
    9.195      132
    9.210      140
    9.225      136
    9.240      143
    9.255      120
    9.270      120
    9.285      123
    9.300      133
    9.315      124
    9.330      133
    9.345      124
    9.360      132
    9.375      118
    9.390      128
    9.405      145
    9.420      132
    9.435      125
    9.450      126
    9.465      137
    9.480      125
    9.495      117
    9.510      120
    9.525      121
    9.540      122
    9.555      125
    9.570      113
    9.585      126
    9.600      131
    9.615      122
    9.630      133
    9.645      122
    9.660      113
    9.675      124
    9.690      125
    9.705      121
    9.720      126
    9.735      141
    9.750      143
    9.765      146
    9.780      148
    9.795      119
    9.810      117
    9.825      122
    9.840      140
    9.855      133
    9.870      127
    9.885      109
    9.900      133
    9.915      124
    9.930      114
    9.945      119
    9.960      136
    9.975      130
    9.990      142
   10.005      124
   10.020      122
   10.035      130
   10.050      108
   10.065      120
   10.080      120
   10.095      122
   10.110      129
   10.125      113
   10.140      139
   10.155      127
   10.170      116
   10.185      129
   10.200      126
   10.215      133
   10.230      137
   10.245      143
   10.260      138
   10.275      134
   10.290      137
   10.305      154
   10.320      150
   10.335      153
   10.350      143
   10.365      134
   10.380      148
   10.395      135
   10.410      146
   10.425      148
   10.440      140
   10.455      139
   10.470      142
   10.485      142
   10.500      131
   10.515      143
   10.530      136
   10.545      116
   10.560      114
   10.575      125
   10.590      125
   10.605      121
   10.620      112
   10.635      114
   10.650      129
   10.665      106
   10.680      112
   10.695      125
   10.710      135
   10.725      133
   10.740      142
   10.755      125
   10.770      128
   10.785      120
   10.800      124
   10.815      126
   10.830      130
   10.845      112
   10.860      120
   10.875      135
   10.890      122
   10.905      124
   10.920      114
   10.935      133
   10.950      124
   10.965      123
   10.980      131
   10.995      136
   11.010      127
   11.025      143
   11.040      120
   11.055      125
   11.070      134
   11.085      132
   11.100      140
   11.115      115
   11.130      111
   11.145      118
   11.160      128
   11.175      122
   11.190      114
   11.205      117
   11.220      140
   11.235      134
   11.250      124
   11.265      120
   11.280      120
   11.295      123
   11.310      125
   11.325      123
   11.340      119
   11.355      107
   11.370      127
   11.385      133
   11.400      122
   11.415      128
   11.430      127
   11.445      133
   11.460      121
   11.475      131
   11.490      134
   11.505      133
   11.520      127
   11.535      121
   11.550      121
   11.565      125
   11.580      129
   11.595      121
   11.610      132
   11.625      125
   11.640      130
   11.655      128
   11.670      145
   11.685      141
   11.700      122
   11.715      127
   11.730      118
   11.745      125
   11.760      143
   11.775      145
   11.790      144
   11.805      151
   11.820      133
   11.835      129
   11.850      130
   11.865      136
   11.880      128
   11.895      129
   11.910      127
   11.925      120
   11.940      118
   11.955      137
   11.970      139
   11.985      128
   12.000      127
   12.015      151
   12.030      136
   12.045      158
   12.060      143
   12.075      136
   12.090      124
   12.105      135
   12.120      135
   12.135      116
   12.150      155
   12.165      134
   12.180      129
   12.195      151
   12.210      115
   12.225      123
   12.240      151
   12.255      131
   12.270      143
   12.285      145
   12.300      135
   12.315      125
   12.330      134
   12.345      140
   12.360      125
   12.375      144
   12.390      132
   12.405      135
   12.420      130
   12.435      131
   12.450      131
   12.465      143
   12.480      145
   12.495      138
   12.510      134
   12.525      128
   12.540      135
   12.555      125
   12.570      140
   12.585      122
   12.600      129
   12.615      136
   12.630      137
   12.645      145
   12.660      134
   12.675      139
   12.690      133
   12.705      135
   12.720      129
   12.735      128
   12.750      126
   12.765      129
   12.780      136
   12.795      129
   12.810      138
   12.825      155
   12.840      131
   12.855      125
   12.870      127
   12.885      137
   12.900      144
   12.915      124
   12.930      125
   12.945      113
   12.960      113
   12.975      138
   12.990      145
   13.005      125
   13.020      126
   13.035      133
   13.050      138
   13.065      118
   13.080      131
   13.095      131
   13.110      128
   13.125      123
   13.140      130
   13.155      134
   13.170      122
   13.185      136
   13.200      145
   13.215      133
   13.230      128
   13.245      143
   13.260      129
   13.275      142
   13.290      144
   13.305      128
   13.320      134
   13.335      129
   13.350      115
   13.365      119
   13.380      125
   13.395      131
   13.410      120
   13.425      138
   13.440      138
   13.455      152
   13.470      139
   13.485      132
   13.500      160
   13.515      157
   13.530      130
   13.545      139
   13.560      118
   13.575      125
   13.590      139
   13.605      137
   13.620      117
   13.635      160
   13.650      131
   13.665      113
   13.680      135
   13.695      138
   13.710      121
   13.725      137
   13.740      145
   13.755      141
   13.770      118
   13.785      123
   13.800      138
   13.815      142
   13.830      142
   13.845      136
   13.860      136
   13.875      149
   13.890      130
   13.905      134
   13.920      131
   13.935      139
   13.950      121
   13.965      126
   13.980      127
   13.995      131
   14.010      132
   14.025      125
   14.040      110
   14.055      116
   14.070      119
   14.085      118
   14.100      117
   14.115      121
   14.130      121
   14.145      105
   14.160      111
   14.175      116
   14.190      126
   14.205      129
   14.220      140
   14.235      119
   14.250      111
   14.265      122
   14.280      115
   14.295      127
   14.310      127
   14.325      119
   14.340      122
   14.355      112
   14.370      132
   14.385      142
   14.400      116
   14.415      115
   14.430      122
   14.445      123
   14.460      121
   14.475      113
   14.490      123
   14.505      123
   14.520      127
   14.535      134
   14.550      119
   14.565      116
   14.580      129
   14.595      122
   14.610      115
   14.625      127
   14.640      123
   14.655      113
   14.670      115
   14.685      112
   14.700      117
   14.715      116
   14.730      127
   14.745      121
   14.760      117
   14.775      116
   14.790      122
   14.805      131
   14.820      123
   14.835      130
   14.850      121
   14.865      122
   14.880      128
   14.895      123
   14.910      126
   14.925      139
   14.940      107
   14.955      110
   14.970      114
   14.985      115
   15.000      111
   15.015      121
   15.030      112
   15.045      124
   15.060      126
   15.075      122
   15.090      129
   15.105      125
   15.120      117
   15.135      129
   15.150      124
   15.165      126
   15.180      123
   15.195      146
   15.210      142
   15.225      115
   15.240      125
   15.255      122
   15.270      128
   15.285      129
   15.300      129
   15.315      117
   15.330      116
   15.345      130
   15.360      114
   15.375      132
   15.390      129
   15.405      125
   15.420      120
   15.435      124
   15.450      116
   15.465      125
   15.480      126
   15.495      142
   15.510      124
   15.525      125
   15.540      122
   15.555      106
   15.570      126
   15.585      118
   15.600      124
   15.615      126
   15.630      109
   15.645      111
   15.660      124
   15.675      120
   15.690      120
   15.705      121
   15.720      126
   15.735      117
   15.750      122
   15.765      108
   15.780      107
   15.795      110
   15.810      134
   15.825      116
   15.840      134
   15.855      127
   15.870      116
   15.885      129
   15.900      122
   15.915      109
   15.930      119
   15.945      135
   15.960      127
   15.975      125
   15.990      144
   16.005      135
   16.020      120
   16.035      124
   16.050      121
   16.065      126
   16.080      120
   16.095      104
   16.110      120
   16.125      132
   16.140      121
   16.155      127
   16.170      120
   16.185      129
   16.200      120
   16.215      104
   16.230      127
   16.245      126
   16.260      126
   16.275      125
   16.290      137
   16.305      114
   16.320      115
   16.335      105
   16.350      125
   16.365      130
   16.380      119
   16.395      109
   16.410      123
   16.425      123
   16.440      118
   16.455      119
   16.470      130
   16.485      119
   16.500      113
   16.515      114
   16.530      105
   16.545      114
   16.560      119
   16.575      121
   16.590      104
   16.605      116
   16.620      107
   16.635      122
   16.650      132
   16.665      119
   16.680      118
   16.695      117
   16.710      115
   16.725      116
   16.740      135
   16.755      127
   16.770      122
   16.785      118
   16.800      120
   16.815      140
   16.830      132
   16.845      135
   16.860      117
   16.875      128
   16.890      124
   16.905      122
   16.920      133
   16.935      129
   16.950      115
   16.965      118
   16.980      112
   16.995      115
   17.010      140
   17.025      138
   17.040      141
   17.055      127
   17.070      130
   17.085      126
   17.100      133
   17.115      120
   17.130      120
   17.145      131
   17.160      131
   17.175      116
   17.190      137
   17.205      140
   17.220      139
   17.235      133
   17.250      113
   17.265      131
   17.280      118
   17.295      121
   17.310      125
   17.325      115
   17.340      124
   17.355      107
   17.370      123
   17.385      135
   17.400      109
   17.415      117
   17.430      128
   17.445      118
   17.460      130
   17.475      119
   17.490      113
   17.505      126
   17.520      125
   17.535      134
   17.550      129
   17.565      113
   17.580      116
   17.595      136
   17.610      127
   17.625      115
   17.640      118
   17.655      110
   17.670      126
   17.685      124
   17.700      132
   17.715      148
   17.730      117
   17.745      128
   17.760      126
   17.775      128
   17.790      118
   17.805      129
   17.820      141
   17.835      127
   17.850      120
   17.865      131
   17.880      134
   17.895      126
   17.910      128
   17.925      125
   17.940      132
   17.955      120
   17.970      124
   17.985      132
   18.000      119
   18.015      138
   18.030      138
   18.045      110
   18.060      118
   18.075      119
   18.090      119
   18.105      135
   18.120      120
   18.135      140
   18.150      144
   18.165      141
   18.180      138
   18.195      131
   18.210      135
   18.225      120
   18.240      111
   18.255      130
   18.270      127
   18.285      110
   18.300      136
   18.315      144
   18.330      108
   18.345      115
   18.360      140
   18.375      127
   18.390      141
   18.405      122
   18.420      124
   18.435      127
   18.450      135
   18.465      120
   18.480      112
   18.495      108
   18.510      124
   18.525      120
   18.540      125
   18.555      118
   18.570      132
   18.585      118
   18.600      119
   18.615      110
   18.630      119
   18.645      128
   18.660      124
   18.675      135
   18.690      116
   18.705      117
   18.720      114
   18.735      123
   18.750      113
   18.765      137
   18.780      140
   18.795      138
   18.810      135
   18.825      130
   18.840      115
   18.855      128
   18.870      134
   18.885      131
   18.900      107
   18.915      117
   18.930      116
   18.945      123
   18.960      137
   18.975      130
   18.990      114
   19.005      130
   19.020      120
   19.035      112
   19.050      117
   19.065      128
   19.080      135
   19.095      118
   19.110      130
   19.125      114
   19.140      116
   19.155      125
   19.170      108
   19.185      129
   19.200      131
   19.215      128
   19.230      129
   19.245      118
   19.260      122
   19.275      136
   19.290      127
   19.305      121
   19.320      134
   19.335      133
   19.350      123
   19.365      121
   19.380      132
   19.395      130
   19.410      123
   19.425      127
   19.440      125
   19.455      123
   19.470      127
   19.485      125
   19.500      126
   19.515      139
   19.530      129
   19.545      127
   19.560      128
   19.575      123
   19.590      136
   19.605      139
   19.620      137
   19.635      150
   19.650      133
   19.665      146
   19.680      142
   19.695      140
   19.710      135
   19.725      149
   19.740      144
   19.755      130
   19.770      136
   19.785      132
   19.800      142
   19.815      144
   19.830      131
   19.845      122
   19.860      127
   19.875      136
   19.890      137
   19.905      119
   19.920      130
   19.935      139
   19.950      155
   19.965      135
   19.980      116
   19.995      140
   20.010      137
   20.025      150
   20.040      140
   20.055      134
   20.070      139
   20.085      127
   20.100      153
   20.115      146
   20.130      145
   20.145      143
   20.160      126
   20.175      132
   20.190      141
   20.205      134
   20.220      130
   20.235      132
   20.250      132
   20.265      143
   20.280      141
   20.295      141
   20.310      127
   20.325      139
   20.340      131
   20.355      138
   20.370      127
   20.385      135
   20.400      133
   20.415      130
   20.430      131
   20.445      140
   20.460      135
   20.475      140
   20.490      152
   20.505      133
   20.520      125
   20.535      140
   20.550      143
   20.565      144
   20.580      147
   20.595      125
   20.610      124
   20.625      135
   20.640      129
   20.655      139
   20.670      128
   20.685      129
   20.700      125
   20.715      113
   20.730      133
   20.745      143
   20.760      125
   20.775      115
   20.790      132
   20.805      127
   20.820      125
   20.835      124
   20.850      139
   20.865      136
   20.880      135
   20.895      128
   20.910      134
   20.925      145
   20.940      128
   20.955      135
   20.970      143
   20.985      157
   21.000      132
   21.015      139
   21.030      130
   21.045      142
   21.060      134
   21.075      118
   21.090      142
   21.105      154
   21.120      148
   21.135      130
   21.150      138
   21.165      144
   21.180      143
   21.195      149
   21.210      149
   21.225      136
   21.240      144
   21.255      146
   21.270      137
   21.285      142
   21.300      123
   21.315      127
   21.330      127
   21.345      137
   21.360      145
   21.375      123
   21.390      124
   21.405      145
   21.420      126
   21.435      150
   21.450      123
   21.465      141
   21.480      132
   21.495      138
   21.510      132
   21.525      140
   21.540      142
   21.555      147
   21.570      137
   21.585      140
   21.600      154
   21.615      129
   21.630      141
   21.645      146
   21.660      141
   21.675      123
   21.690      138
   21.705      130
   21.720      151
   21.735      123
   21.750      122
   21.765      148
   21.780      139
   21.795      138
   21.810      132
   21.825      131
   21.840      139
   21.855      132
   21.870      149
   21.885      149
   21.900      145
   21.915      142
   21.930      117
   21.945      146
   21.960      140
   21.975      128
   21.990      111
   22.005      134
   22.020      129
   22.035      159
   22.050      129
   22.065      121
   22.080      128
   22.095      140
   22.110      128
   22.125      149
   22.140      134
   22.155      118
   22.170      120
   22.185      139
   22.200      124
   22.215      127
   22.230      139
   22.245      157
   22.260      139
   22.275      122
   22.290      137
   22.305      129
   22.320      132
   22.335      140
   22.350      145
   22.365      135
   22.380      118
   22.395      118
   22.410      135
   22.425      129
   22.440      135
   22.455      119
   22.470      140
   22.485      146
   22.500      145
   22.515      133
   22.530      136
   22.545      145
   22.560      140
   22.575      137
   22.590      153
   22.605      141
   22.620      143
   22.635      150
   22.650      135
   22.665      129
   22.680      117
   22.695      140
   22.710      142
   22.725      149
   22.740      125
   22.755      134
   22.770      125
   22.785      148
   22.800      150
   22.815      124
   22.830      116
   22.845      119
   22.860      142
   22.875      156
   22.890      142
   22.905      128
   22.920      136
   22.935      146
   22.950      153
   22.965      145
   22.980      130
   22.995      153
   23.010      128
   23.025      143
   23.040      138
   23.055      147
   23.070      124
   23.085      136
   23.100      142
   23.115      128
   23.130      136
   23.145      145
   23.160      143
   23.175      140
   23.190      145
   23.205      145
   23.220      124
   23.235      131
   23.250      146
   23.265      126
   23.280      121
   23.295      125
   23.310      158
   23.325      142
   23.340      133
   23.355      143
   23.370      128
   23.385      135
   23.400      138
   23.415      152
   23.430      140
   23.445      126
   23.460      118
   23.475      109
   23.490      131
   23.505      134
   23.520      138
   23.535      119
   23.550      127
   23.565      130
   23.580      129
   23.595      142
   23.610      136
   23.625      130
   23.640      131
   23.655      129
   23.670      131
   23.685      139
   23.700      130
   23.715      116
   23.730      118
   23.745      132
   23.760      132
   23.775      132
   23.790      127
   23.805      132
   23.820      143
   23.835      143
   23.850      151
   23.865      136
   23.880      124
   23.895      141
   23.910      135
   23.925      122
   23.940      123
   23.955      114
   23.970      124
   23.985      132
   24.000      145
   24.015      129
   24.030      128
   24.045      123
   24.060      127
   24.075      144
   24.090      137
   24.105      126
   24.120      128
   24.135      124
   24.150      124
   24.165      128
   24.180      138
   24.195      130
   24.210      117
   24.225      118
   24.240      144
   24.255      133
   24.270      128
   24.285      128
   24.300      126
   24.315      139
   24.330      137
   24.345      130
   24.360      132
   24.375      115
   24.390      114
   24.405      115
   24.420      140
   24.435      144
   24.450      138
   24.465      145
   24.480      137
   24.495      127
   24.510      127
   24.525      121
   24.540      122
   24.555      124
   24.570      106
   24.585      123
   24.600      139
   24.615      123
   24.630      130
   24.645      135
   24.660      129
   24.675      134
   24.690      127
   24.705      128
   24.720      144
   24.735      126
   24.750      136
   24.765      136
   24.780      125
   24.795      125
   24.810      114
   24.825      120
   24.840      124
   24.855      138
   24.870      136
   24.885      131
   24.900      125
   24.915      136
   24.930      122
   24.945      113
   24.960      128
   24.975      122
   24.990      113
   25.005      130
   25.020      130
   25.035      123
   25.050      128
   25.065      132
   25.080      132
   25.095      119
   25.110      118
   25.125      121
   25.140      122
   25.155      115
   25.170      126
   25.185      129
   25.200      123
   25.215      120
   25.230      141
   25.245      130
   25.260      127
   25.275      128
   25.290      127
   25.305      110
   25.320      144
   25.335      137
   25.350      120
   25.365      112
   25.380      129
   25.395      135
   25.410      122
   25.425      137
   25.440      123
   25.455      127
   25.470      141
   25.485      127
   25.500      128
   25.515      107
   25.530      112
   25.545      135
   25.560      112
   25.575      130
   25.590      120
   25.605      130
   25.620      126
   25.635      138
   25.650      109
   25.665      115
   25.680      126
   25.695      120
   25.710      127
   25.725      135
   25.740      119
   25.755      125
   25.770      111
   25.785      138
   25.800      127
   25.815      133
   25.830      123
   25.845      126
   25.860      131
   25.875      127
   25.890      143
   25.905      125
   25.920      126
   25.935      134
   25.950      117
   25.965      107
   25.980      127
   25.995      125
   26.010      127
   26.025      106
   26.040      114
   26.055      126
   26.070      120
   26.085      121
   26.100      127
   26.115      111
   26.130      110
   26.145      117
   26.160      115
   26.175      129
   26.190      111
   26.205      125
   26.220      106
   26.235      118
   26.250      116
   26.265      110
   26.280      103
   26.295      124
   26.310      113
   26.325      127
   26.340      117
   26.355      114
   26.370      116
   26.385      134
   26.400      122
   26.415      124
   26.430      114
   26.445      113
   26.460       94
   26.475      123
   26.490      125
   26.505      130
   26.520      114
   26.535      112
   26.550      128
   26.565      126
   26.580      120
   26.595      112
   26.610      117
   26.625      116
   26.640      120
   26.655      114
   26.670      110
   26.685      112
   26.700      123
   26.715      117
   26.730      115
   26.745      124
   26.760      122
   26.775      108
   26.790      109
   26.805      111
   26.820      100
   26.835      104
   26.850      119
   26.865      122
   26.880      116
   26.895      117
   26.910      132
   26.925      103
   26.940      123
   26.955      106
   26.970      114
   26.985      120
   27.000      125
   27.015      127
   27.030      122
   27.045      117
   27.060      113
   27.075      115
   27.090      110
   27.105      106
   27.120      100
   27.135      119
   27.150      108
   27.165      114
   27.180      127
   27.195      132
   27.210      100
   27.225      106
   27.240      117
   27.255      118
   27.270      111
   27.285      105
   27.300      117
   27.315      122
   27.330      111
   27.345      126
   27.360      127
   27.375      115
   27.390      102
   27.405      114
   27.420      113
   27.435      113
   27.450      127
   27.465      112
   27.480      106
   27.495      116
   27.510      113
   27.525      130
   27.540      119
   27.555      129
   27.570      111
   27.585      103
   27.600      124
   27.615      110
   27.630      120
   27.645      108
   27.660      112
   27.675      116
   27.690      105
   27.705      121
   27.720      111
   27.735      110
   27.750      131
   27.765      122
   27.780      111
   27.795      113
   27.810      114
   27.825      101
   27.840      105
   27.855      116
   27.870      110
   27.885      113
   27.900      108
   27.915      110
   27.930      115
   27.945      115
   27.960      113
   27.975      105
   27.990      102
   28.005      121
   28.020      130
   28.035      128
   28.050      105
   28.065      112
   28.080      120
   28.095      125
   28.110      114
   28.125      121
   28.140      118
   28.155      108
   28.170      117
   28.185      114
   28.200      115
   28.215      121
   28.230      130
   28.245      113
   28.260      111
   28.275      120
   28.290      103
   28.305      120
   28.320      118
   28.335      130
   28.350      114
   28.365      125
   28.380      115
   28.395      112
   28.410      113
   28.425      107
   28.440      111
   28.455      113
   28.470      108
   28.485      100
   28.500      110
   28.515      122
   28.530      119
   28.545      121
   28.560      106
   28.575      112
   28.590      117
   28.605      126
   28.620      106
   28.635      110
   28.650      110
   28.665      108
   28.680      123
   28.695      116
   28.710      118
   28.725      101
   28.740      116
   28.755      124
   28.770      117
   28.785      109
   28.800      102
   28.815      112
   28.830      116
   28.845      102
   28.860       97
   28.875      102
   28.890      110
   28.905      128
   28.920      101
   28.935      110
   28.950      108
   28.965      107
   28.980      106
   28.995       98
   29.010      100
   29.025      120
   29.040      106
   29.055      106
   29.070      109
   29.085      109
   29.100       94
   29.115      107
   29.130      103
   29.145      112
   29.160      120
   29.175      115
   29.190      106
   29.205      115
   29.220      111
   29.235       92
   29.250      124
   29.265      115
   29.280      110
   29.295       98
   29.310      112
   29.325      108
   29.340      118
   29.355      117
   29.370      113
   29.385      114
   29.400      104
   29.415      121
   29.430      121
   29.445      100
   29.460      109
   29.475      100
   29.490       89
   29.505       95
   29.520      102
   29.535      121
   29.550      115
   29.565       96
   29.580      107
   29.595      116
   29.610      106
   29.625      109
   29.640      103
   29.655      104
   29.670      101
   29.685      101
   29.700      102
   29.715      114
   29.730      109
   29.745      140
   29.760      115
   29.775      115
   29.790      106
   29.805      100
   29.820       96
   29.835      116
   29.850      101
   29.865      110
   29.880       95
   29.895      120
   29.910      109
   29.925      101
   29.940      103
   29.955      112
   29.970      113
   29.985      109
   30.000      102
   30.015       84
   30.030       88
   30.045       99
   30.060       87
   30.075      105
   30.090      113
   30.105      121
   30.120      110
   30.135      113
   30.150       95
   30.165      103
   30.180      109
   30.195       94
   30.210      105
   30.225       98
   30.240      100
   30.255      105
   30.270      119
   30.285      108
   30.300       97
   30.315      101
   30.330       99
   30.345      110
   30.360      105
   30.375       96
   30.390      123
   30.405      116
   30.420      122
   30.435       87
   30.450      106
   30.465      115
   30.480      119
   30.495      104
   30.510      105
   30.525       99
   30.540       82
   30.555      105
   30.570      114
   30.585      106
   30.600      114
   30.615       96
   30.630       84
   30.645       97
   30.660      107
   30.675      110
   30.690       95
   30.705      104
   30.720      112
   30.735       95
   30.750      100
   30.765      112
   30.780      107
   30.795      101
   30.810      100
   30.825      104
   30.840       98
   30.855      101
   30.870      108
   30.885      114
   30.900      108
   30.915      103
   30.930      100
   30.945       87
   30.960       92
   30.975       95
   30.990       99
   31.005      108
   31.020      108
   31.035      100
   31.050       86
   31.065      111
   31.080      110
   31.095       97
   31.110       91
   31.125      100
   31.140       84
   31.155       95
   31.170      106
   31.185      100
   31.200      110
   31.215      104
   31.230      108
   31.245      104
   31.260      107
   31.275      101
   31.290      108
   31.305      107
   31.320      101
   31.335       90
   31.350       97
   31.365      107
   31.380      110
   31.395      101
   31.410       91
   31.425      105
   31.440       98
   31.455      100
   31.470      109
   31.485       99
   31.500      104
   31.515       97
   31.530       92
   31.545       97
   31.560       94
   31.575       94
   31.590      112
   31.605      108
   31.620      111
   31.635      101
   31.650      101
   31.665      101
   31.680       88
   31.695       98
   31.710       90
   31.725      101
   31.740       94
   31.755       91
   31.770      100
   31.785       92
   31.800       98
   31.815      109
   31.830      100
   31.845       99
   31.860      105
   31.875       98
   31.890       94
   31.905       89
   31.920       87
   31.935      101
   31.950       89
   31.965       98
   31.980      103
   31.995      111
   32.010       92
   32.025      111
   32.040      103
   32.055      103
   32.070       80
   32.085       88
   32.100      102
   32.115      113
   32.130      109
   32.145       97
   32.160      105
   32.175       96
   32.190       95
   32.205      102
   32.220       94
   32.235       89
   32.250       91
   32.265      111
   32.280       95
   32.295      101
   32.310       91
   32.325       93
   32.340       97
   32.355      101
   32.370       98
   32.385       88
   32.400       94
   32.415      107
   32.430       92
   32.445       98
   32.460      107
   32.475       94
   32.490       94
   32.505       94
   32.520      100
   32.535       83
   32.550       97
   32.565       95
   32.580       90
   32.595       99
   32.610       99
   32.625       91
   32.640       92
   32.655      105
   32.670       97
   32.685       99
   32.700       88
   32.715       88
   32.730       91
   32.745       99
   32.760      102
   32.775      113
   32.790       97
   32.805       79
   32.820       79
   32.835       80
   32.850       84
   32.865       81
   32.880       81
   32.895       73
   32.910       92
   32.925      102
   32.940       87
   32.955       95
   32.970       83
   32.985       88
   33.000       85
   33.015       89
   33.030       89
   33.045       95
   33.060       95
   33.075       89
   33.090      103
   33.105      106
   33.120      102
   33.135      118
   33.150      102
   33.165       92
   33.180       87
   33.195       90
   33.210      106
   33.225      107
   33.240      111
   33.255       86
   33.270       84
   33.285       89
   33.300       98
   33.315      102
   33.330       99
   33.345       83
   33.360       94
   33.375       85
   33.390       78
   33.405      102
   33.420      100
   33.435       75
   33.450       74
   33.465       79
   33.480       88
   33.495       96
   33.510       93
   33.525       93
   33.540       85
   33.555       92
   33.570       83
   33.585       73
   33.600       77
   33.615       82
   33.630       81
   33.645       89
   33.660       91
   33.675       85
   33.690       87
   33.705       83
   33.720       87
   33.735       90
   33.750       85
   33.765       74
   33.780       86
   33.795       94
   33.810       76
   33.825       72
   33.840       87
   33.855       84
   33.870       93
   33.885       84
   33.900       83
   33.915       90
   33.930       92
   33.945       87
   33.960       78
   33.975       80
   33.990       88
   34.005       83
   34.020       82
   34.035       73
   34.050       75
   34.065       89
   34.080       80
   34.095       82
   34.110       76
   34.125       82
   34.140       85
   34.155       89
   34.170       89
   34.185       91
   34.200       79
   34.215       86
   34.230       80
   34.245       84
   34.260       86
   34.275       83
   34.290       90
   34.305       85
   34.320       81
   34.335       75
   34.350       92
   34.365       84
   34.380       89
   34.395       80
   34.410       83
   34.425       74
   34.440       81
   34.455       93
   34.470       79
   34.485       82
   34.500       75
   34.515       86
   34.530       81
   34.545       76
   34.560       74
   34.575       79
   34.590       69
   34.605       87
   34.620       82
   34.635       68
   34.650       80
   34.665       79
   34.680       68
   34.695       79
   34.710       86
   34.725       67
   34.740       89
   34.755       99
   34.770       85
   34.785       75
   34.800       82
   34.815       69
   34.830       73
   34.845       77
   34.860       73
   34.875       79
   34.890       65
   34.905       77
   34.920       90
   34.935       76
   34.950       66
   34.965       77
   34.980       96
   34.995       81
   35.010       83
   35.025       87
   35.040       87
   35.055       83
   35.070       94
   35.085       90
   35.100       76
   35.115       77
   35.130       78
   35.145       81
   35.160       85
   35.175       79
   35.190       80
   35.205       71
   35.220       77
   35.235       81
   35.250       86
   35.265       77
   35.280       75
   35.295       75
   35.310       61
   35.325       86
   35.340       84
   35.355       72
   35.370       78
   35.385       84
   35.400       75
   35.415       85
   35.430      102
   35.445       92
   35.460       76
   35.475       85
   35.490       74
   35.505       68
   35.520       79
   35.535       78
   35.550       82
   35.565       78
   35.580       85
   35.595       82
   35.610       71
   35.625       94
   35.640       81
   35.655       75
   35.670       80
   35.685       75
   35.700       78
   35.715       81
   35.730       75
   35.745       79
   35.760       74
   35.775       74
   35.790       76
   35.805       64
   35.820       67
   35.835       81
   35.850       86
   35.865       85
   35.880       74
   35.895       84
   35.910       70
   35.925       73
   35.940       72
   35.955       83
   35.970       78
   35.985       68
   36.000       88
   36.015       77
   36.030       86
   36.045       77
   36.060       79
   36.075       76
   36.090       83
   36.105       79
   36.120       74
   36.135       77
   36.150       63
   36.165       61
   36.180       85
   36.195       75
   36.210       71
   36.225       73
   36.240       70
   36.255       83
   36.270       80
   36.285       69
   36.300       66
   36.315       71
   36.330       69
   36.345       63
   36.360       75
   36.375       68
   36.390       74
   36.405       73
   36.420       77
   36.435       74
   36.450       71
   36.465       76
   36.480       72
   36.495       68
   36.510       63
   36.525       77
   36.540       68
   36.555       79
   36.570       92
   36.585       72
   36.600       63
   36.615       81
   36.630       74
   36.645       61
   36.660       72
   36.675       70
   36.690       69
   36.705       74
   36.720       81
   36.735       78
   36.750       76
   36.765       65
   36.780       70
   36.795       86
   36.810       86
   36.825       80
   36.840       85
   36.855       65
   36.870       81
   36.885       73
   36.900       86
   36.915       80
   36.930       74
   36.945       66
   36.960       73
   36.975       75
   36.990       66
   37.005       69
   37.020       60
   37.035       70
   37.050       71
   37.065       70
   37.080       74
   37.095       68
   37.110       63
   37.125       55
   37.140       72
   37.155       64
   37.170       64
   37.185       70
   37.200       68
   37.215       75
   37.230       71
   37.245       87
   37.260       66
   37.275       73
   37.290       68
   37.305       63
   37.320       67
   37.335       68
   37.350       78
   37.365       74
   37.380       70
   37.395       82
   37.410       68
   37.425       70
   37.440       72
   37.455       63
   37.470       77
   37.485       70
   37.500       63
   37.515       70
   37.530       70
   37.545       66
   37.560       69
   37.575       59
   37.590       76
   37.605       69
   37.620       81
   37.635       68
   37.650       75
   37.665       61
   37.680       74
   37.695       74
   37.710       64
   37.725       75
   37.740       67
   37.755       69
   37.770       61
   37.785       63
   37.800       66
   37.815       68
   37.830       69
   37.845       63
   37.860       75
   37.875       68
   37.890       79
   37.905       71
   37.920       69
   37.935       78
   37.950       68
   37.965       62
   37.980       60
   37.995       65
   38.010       68
   38.025       72
   38.040       79
   38.055       80
   38.070       74
   38.085       79
   38.100       71
   38.115       71
   38.130       72
   38.145       57
   38.160       69
   38.175       66
   38.190       75
   38.205       81
   38.220       68
   38.235       68
   38.250       74
   38.265       62
   38.280       59
   38.295       60
   38.310       64
   38.325       60
   38.340       65
   38.355       65
   38.370       62
   38.385       62
   38.400       69
   38.415       73
   38.430       54
   38.445       70
   38.460       82
   38.475       72
   38.490       67
   38.505       68
   38.520       65
   38.535       71
   38.550       65
   38.565       64
   38.580       73
   38.595       74
   38.610       63
   38.625       63
   38.640       75
   38.655       80
   38.670       71
   38.685       72
   38.700       70
   38.715       73
   38.730       74
   38.745       76
   38.760       68
   38.775       70
   38.790       63
   38.805       62
   38.820       75
   38.835       72
   38.850       86
   38.865       75
   38.880       56
   38.895       78
   38.910       72
   38.925       74
   38.940       66
   38.955       68
   38.970       61
   38.985       47
   39.000       74
   39.015       85
   39.030       71
   39.045       78
   39.060       70
   39.075       62
   39.090       80
   39.105       75
   39.120       79
   39.135       60
   39.150       79
   39.165       60
   39.180       58
   39.195       70
   39.210       85
   39.225       71
   39.240       74
   39.255       74
   39.270       79
   39.285       65
   39.300       86
   39.315       78
   39.330       68
   39.345       74
   39.360       62
   39.375       62
   39.390       64
   39.405       52
   39.420       63
   39.435       58
   39.450       57
   39.465       62
   39.480       72
   39.495       71
   39.510       65
   39.525       61
   39.540       64
   39.555       62
   39.570       61
   39.585       62
   39.600       71
   39.615       68
   39.630       64
   39.645       60
   39.660       64
   39.675       61
   39.690       69
   39.705       62
   39.720       65
   39.735       70
   39.750       73
   39.765       67
   39.780       72
   39.795       66
   39.810       57
   39.825       60
   39.840       73
   39.855       73
   39.870       59
   39.885       75
   39.900       70
   39.915       55
   39.930       61
   39.945       59
   39.960       60
   39.975       66
   39.990       55
   40.005       63
   40.020       62
   40.035       73
   40.050       75
   40.065       68
   40.080       69
   40.095       69
   40.110       73
   40.125       59
   40.140       66
   40.155       66
   40.170       67
   40.185       64
   40.200       70
   40.215       64
   40.230       53
   40.245       58
   40.260       73
   40.275       67
   40.290       61
   40.305       64
   40.320       61
   40.335       59
   40.350       69
   40.365       67
   40.380       75
   40.395       70
   40.410       67
   40.425       73
   40.440       67
   40.455       60
   40.470       59
   40.485       63
   40.500       74
   40.515       69
   40.530       69
   40.545       72
   40.560       73
   40.575       67
   40.590       76
   40.605       64
   40.620       67
   40.635       70
   40.650       68
   40.665       71
   40.680       63
   40.695       74
   40.710       63
   40.725       62
   40.740       62
   40.755       68
   40.770       62
   40.785       69
   40.800       60
   40.815       67
   40.830       69
   40.845       66
   40.860       64
   40.875       59
   40.890       63
   40.905       72
   40.920       70
   40.935       56
   40.950       57
   40.965       65
   40.980       66
   40.995       71
   41.010       72
   41.025       72
   41.040       74
   41.055       70
   41.070       64
   41.085       55
   41.100       54
   41.115       58
   41.130       62
   41.145       69
   41.160       62
   41.175       67
   41.190       61
   41.205       58
   41.220       64
   41.235       78
   41.250       62
   41.265       73
   41.280       68
   41.295       61
   41.310       66
   41.325       55
   41.340       60
   41.355       66
   41.370       57
   41.385       53
   41.400       60
   41.415       83
   41.430       80
   41.445       65
   41.460       76
   41.475       79
   41.490       69
   41.505       59
   41.520       59
   41.535       71
   41.550       72
   41.565       77
   41.580       91
   41.595       56
   41.610       64
   41.625       73
   41.640       74
   41.655       69
   41.670       64
   41.685       70
   41.700       66
   41.715       54
   41.730       56
   41.745       51
   41.760       55
   41.775       59
   41.790       71
   41.805       68
   41.820       57
   41.835       55
   41.850       58
   41.865       68
   41.880       63
   41.895       60
   41.910       58
   41.925       62
   41.940       60
   41.955       69
   41.970       70
   41.985       69
   42.000       64
   42.015       57
   42.030       50
   42.045       60
   42.060       64
   42.075       76
   42.090       70
   42.105       61
   42.120       66
   42.135       69
   42.150       65
   42.165       57
   42.180       65
   42.195       62
   42.210       68
   42.225       67
   42.240       75
   42.255       64
   42.270       63
   42.285       66
   42.300       59
   42.315       61
   42.330       55
   42.345       68
   42.360       60
   42.375       59
   42.390       57
   42.405       58
   42.420       67
   42.435       71
   42.450       65
   42.465       61
   42.480       59
   42.495       72
   42.510       60
   42.525       65
   42.540       77
   42.555       66
   42.570       56
   42.585       58
   42.600       65
   42.615       63
   42.630       64
   42.645       71
   42.660       57
   42.675       55
   42.690       63
   42.705       57
   42.720       57
   42.735       64
   42.750       54
   42.765       69
   42.780       54
   42.795       69
   42.810       71
   42.825       80
   42.840       70
   42.855       57
   42.870       66
   42.885       63
   42.900       63
   42.915       77
   42.930       61
   42.945       54
   42.960       71
   42.975       67
   42.990       66
   43.005       74
   43.020       64
   43.035       63
   43.050       69
   43.065       65
   43.080       65
   43.095       65
   43.110       51
   43.125       54
   43.140       68
   43.155       52
   43.170       63
   43.185       70
   43.200       53
   43.215       52
   43.230       56
   43.245       64
   43.260       69
   43.275       72
   43.290       71
   43.305       78
   43.320       66
   43.335       70
   43.350       73
   43.365       64
   43.380       60
   43.395       70
   43.410       73
   43.425       63
   43.440       67
   43.455       61
   43.470       76
   43.485       72
   43.500       58
   43.515       52
   43.530       62
   43.545       68
   43.560       67
   43.575       74
   43.590       69
   43.605       57
   43.620       46
   43.635       65
   43.650       68
   43.665       66
   43.680       65
   43.695       68
   43.710       73
   43.725       64
   43.740       69
   43.755       64
   43.770       71
   43.785       60
   43.800       65
   43.815       69
   43.830       68
   43.845       63
   43.860       53
   43.875       54
   43.890       71
   43.905       77
   43.920       68
   43.935       67
   43.950       67
   43.965       63
   43.980       70
   43.995       70
   44.010       62
   44.025       66
   44.040       68
   44.055       71
   44.070       69
   44.085       64
   44.100       56
   44.115       57
   44.130       59
   44.145       58
   44.160       66
   44.175       65
   44.190       60
   44.205       57
   44.220       54
   44.235       73
   44.250       74
   44.265       62
   44.280       55
   44.295       54
   44.310       63
   44.325       54
   44.340       58
   44.355       55
   44.370       59
   44.385       72
   44.400       62
   44.415       62
   44.430       65
   44.445       70
   44.460       76
   44.475       55
   44.490       58
   44.505       64
   44.520       48
   44.535       54
   44.550       47
   44.565       50
   44.580       56
   44.595       58
   44.610       70
   44.625       64
   44.640       52
   44.655       66
   44.670       59
   44.685       66
   44.700       62
   44.715       55
   44.730       61
   44.745       64
   44.760       68
   44.775       74
   44.790       70
   44.805       64
   44.820       63
   44.835       70
   44.850       59
   44.865       55
   44.880       51
   44.895       50
   44.910       71
   44.925       67
   44.940       64
   44.955       74
   44.970       53
   44.985       53
   45.000       65
   45.015       63
   45.030       60
   45.045       57
   45.060       62
   45.075       54
   45.090       57
   45.105       59
   45.120       66
   45.135       68
   45.150       72
   45.165       53
   45.180       71
   45.195       60
   45.210       62
   45.225       65
   45.240       74
   45.255       62
   45.270       63
   45.285       58
   45.300       58
   45.315       57
   45.330       56
   45.345       60
   45.360       75
   45.375       61
   45.390       64
   45.405       78
   45.420       65
   45.435       59
   45.450       59
   45.465       80
   45.480       66
   45.495       67
   45.510       61
   45.525       59
   45.540       48
   45.555       56
   45.570       61
   45.585       67
   45.600       56
   45.615       49
   45.630       63
   45.645       61
   45.660       57
   45.675       56
   45.690       61
   45.705       65
   45.720       71
   45.735       59
   45.750       60
   45.765       60
   45.780       65
   45.795       59
   45.810       59
   45.825       54
   45.840       59
   45.855       50
   45.870       50
   45.885       55
   45.900       66
   45.915       63
   45.930       61
   45.945       62
   45.960       60
   45.975       61
   45.990       61
   46.005       61
   46.020       55
   46.035       71
   46.050       76
   46.065       66
   46.080       70
   46.095       61
   46.110       69
   46.125       64
   46.140       65
   46.155       63
   46.170       60
   46.185       53
   46.200       57
   46.215       61
   46.230       59
   46.245       56
   46.260       67
   46.275       57
   46.290       67
   46.305       58
   46.320       55
   46.335       59
   46.350       54
   46.365       62
   46.380       60
   46.395       61
   46.410       52
   46.425       56
   46.440       63
   46.455       57
   46.470       57
   46.485       54
   46.500       67
   46.515       63
   46.530       51
   46.545       56
   46.560       53
   46.575       52
   46.590       61
   46.605       65
   46.620       58
   46.635       71
   46.650       74
   46.665       49
   46.680       56
   46.695       56
   46.710       50
   46.725       54
   46.740       55
   46.755       54
   46.770       48
   46.785       56
   46.800       60
   46.815       60
   46.830       65
   46.845       69
   46.860       55
   46.875       57
   46.890       43
   46.905       47
   46.920       66
   46.935       64
   46.950       66
   46.965       58
   46.980       59
   46.995       65
   47.010       64
   47.025       62
   47.040       51
   47.055       62
   47.070       55
   47.085       53
   47.100       56
   47.115       70
   47.130       75
   47.145       70
   47.160       61
   47.175       68
   47.190       66
   47.205       53
   47.220       59
   47.235       59
   47.250       56
   47.265       59
   47.280       42
   47.295       63
   47.310       63
   47.325       54
   47.340       58
   47.355       56
   47.370       55
   47.385       65
   47.400       60
   47.415       55
   47.430       62
   47.445       55
   47.460       63
   47.475       56
   47.490       58
   47.505       56
   47.520       52
   47.535       43
   47.550       53
   47.565       62
   47.580       58
   47.595       59
   47.610       62
   47.625       55
   47.640       61
   47.655       49
   47.670       45
   47.685       54
   47.700       60
   47.715       58
   47.730       55
   47.745       50
   47.760       53
   47.775       58
   47.790       44
   47.805       63
   47.820       68
   47.835       61
   47.850       66
   47.865       63
   47.880       63
   47.895       50
   47.910       51
   47.925       58
   47.940       57
   47.955       64
   47.970       52
   47.985       58
   48.000       61
   48.015       57
   48.030       43
   48.045       57
   48.060       45
   48.075       53
   48.090       62
   48.105       52
   48.120       64
   48.135       58
   48.150       55
   48.165       49
   48.180       56
   48.195       63
   48.210       57
   48.225       51
   48.240       54
   48.255       62
   48.270       69
   48.285       47
   48.300       63
   48.315       58
   48.330       51
   48.345       48
   48.360       54
   48.375       53
   48.390       55
   48.405       56
   48.420       45
   48.435       53
   48.450       60
   48.465       62
   48.480       61
   48.495       63
   48.510       65
   48.525       53
   48.540       58
   48.555       57
   48.570       51
   48.585       64
   48.600       65
   48.615       57
   48.630       61
   48.645       47
   48.660       62
   48.675       60
   48.690       63
   48.705       58
   48.720       52
   48.735       57
   48.750       58
   48.765       59
   48.780       55
   48.795       60
   48.810       50
   48.825       46
   48.840       46
   48.855       58
   48.870       65
   48.885       56
   48.900       53
   48.915       60
   48.930       70
   48.945       66
   48.960       63
   48.975       50
   48.990       49
   49.005       51
   49.020       60
   49.035       63
   49.050       70
   49.065       74
   49.080       68
   49.095       65
   49.110       63
   49.125       68
   49.140       58
   49.155       65
   49.170       62
   49.185       59
   49.200       64
   49.215       55
   49.230       51
   49.245       58
   49.260       57
   49.275       48
   49.290       50
   49.305       52
   49.320       52
   49.335       60
   49.350       53
   49.365       52
   49.380       61
   49.395       61
   49.410       53
   49.425       57
   49.440       62
   49.455       56
   49.470       46
   49.485       59
   49.500       57
   49.515       75
   49.530       67
   49.545       62
   49.560       56
   49.575       60
   49.590       49
   49.605       59
   49.620       49
   49.635       45
   49.650       54
   49.665       61
   49.680       51
   49.695       50
   49.710       52
   49.725       56
   49.740       54
   49.755       58
   49.770       43
   49.785       48
   49.800       54
   49.815       50
   49.830       53
   49.845       58
   49.860       55
   49.875       53
   49.890       56
   49.905       66
   49.920       53
   49.935       61
   49.950       49
   49.965       54
   49.980       59
