    1.500    8.0569
    1.515    8.1938
    1.530    7.9094
    1.545    7.9621
    1.560    7.9831
    1.575    7.6988
    1.590    7.8041
    1.605    7.1511
    1.620    7.1301
    1.635    7.5619
    1.650    7.4144
    1.665    7.6883
    1.680    7.2670
    1.695    7.1406
    1.710    7.2986
    1.725    6.7720
    1.740    7.3091
    1.755    7.3512
    1.770    6.9616
    1.785    6.7404
    1.800    6.7615
    1.815    6.7615
    1.830    7.1406
    1.845    6.8668
    1.860    6.6983
    1.875    6.9721
    1.890    6.6351
    1.905    6.4455
    1.920    6.5192
    1.935    6.4771
    1.950    6.4771
    1.965    6.1822
    1.980    6.2875
    1.995    6.1927
    2.010    6.1190
    2.025    6.1401
    2.040    6.1506
    2.055    6.4455
    2.070    6.4455
    2.085    6.0664
    2.100    6.0558
    2.115    6.3928
    2.130    6.1506
    2.145    6.5087
    2.160    6.1611
    2.175    6.1611
    2.190    6.0664
    2.205    5.9189
    2.220    6.0137
    2.235    6.2770
    2.250    6.0032
    2.265    5.7083
    2.280    5.7820
    2.295    6.0769
    2.310    5.8768
    2.325    5.6556
    2.340    5.8031
    2.355    5.8768
    2.370    5.4871
    2.385    5.2870
    2.400    5.6029
    2.415    5.6240
    2.430    5.5714
    2.445    5.5292
    2.460    5.4976
    2.475    5.8241
    2.490    5.7399
    2.505    5.3186
    2.520    5.7504
    2.535    5.7188
    2.550    5.2975
    2.565    5.5292
    2.580    5.5082
    2.595    5.5714
    2.610    5.6029
    2.625    5.5187
    2.640    5.5292
    2.655    5.6029
    2.670    5.6135
    2.685    5.4450
    2.700    5.6240
    2.715    5.6556
    2.730    5.6767
    2.745    5.5924
    2.760    5.2765
    2.775    4.9605
    2.790    5.6556
    2.805    5.4239
    2.820    5.2554
    2.835    5.0448
    2.850    5.0974
    2.865    5.8136
    2.880    5.5187
    2.895    5.4134
    2.910    5.3502
    2.925    5.7188
    2.940    5.6135
    2.955    5.2554
    2.970    5.4555
    2.985    5.4871
    3.000    5.4766
    3.015    5.2449
    3.030    5.3502
    3.045    5.4871
    3.060    4.9921
    3.075    4.8341
    3.090    5.3291
    3.105    5.2027
    3.120    5.4344
    3.135    5.2765
    3.150    5.1185
    3.165    5.0342
    3.180    5.0448
    3.195    5.2133
    3.210    5.3291
    3.225    5.1290
    3.240    5.0869
    3.255    5.3502
    3.270    5.6767
    3.285    5.7925
    3.300    5.2449
    3.315    5.2027
    3.330    5.0026
    3.345    5.2975
    3.360    5.0553
    3.375    5.2765
    3.390    5.2027
    3.405    5.0658
    3.420    4.8763
    3.435    5.0658
    3.450    4.9289
    3.465    5.2975
    3.480    5.1501
    3.495    5.2027
    3.510    5.1290
    3.525    5.3397
    3.540    5.0658
    3.555    5.3712
    3.570    5.5082
    3.585    5.6451
    3.600    5.4660
    3.615    5.6240
    3.630    5.6872
    3.645    5.4344
    3.660    5.4976
    3.675    5.6661
    3.690    6.0348
    3.705    5.9400
    3.720    6.0242
    3.735    5.9610
    3.750    6.3296
    3.765    6.3402
    3.780    6.1611
    3.795    6.2665
    3.810    6.3402
    3.825    6.0874
    3.840    6.4982
    3.855    6.7720
    3.870    6.8246
    3.885    7.0458
    3.900    6.3402
    3.915    6.2875
    3.930    6.1611
    3.945    5.6240
    3.960    5.8347
    3.975    5.9400
    3.990    5.5819
    4.005    5.5187
    4.020    5.3818
    4.035    5.7293
    4.050    5.4450
    4.065    5.5082
    4.080    5.5187
    4.095    5.6661
    4.110    5.5082
    4.125    5.6345
    4.140    5.4450
    4.155    5.1185
    4.170    5.1395
    4.185    5.3397
    4.200    5.4555
    4.215    5.1185
    4.230    4.9500
    4.245    5.2659
    4.260    5.4555
    4.275    5.4766
    4.290    5.2975
    4.305    5.2975
    4.320    5.5503
    4.335    5.4555
    4.350    5.5714
    4.365    5.4555
    4.380    5.5398
    4.395    5.3607
    4.410    5.3818
    4.425    5.0448
    4.440    5.1290
    4.455    5.4028
    4.470    5.5503
    4.485    5.7083
    4.500    5.7188
    4.515    5.5819
    4.530    5.4555
    4.545    5.5714
    4.560    5.5714
    4.575    5.7399
    4.590    5.7609
    4.605    5.6135
    4.620    5.6977
    4.635    5.7188
    4.650    5.4976
    4.665    5.3502
    4.680    5.5819
    4.695    5.5082
    4.710    5.3186
    4.725    5.5292
    4.740    5.5398
    4.755    5.8136
    4.770    5.6872
    4.785    5.6240
    4.800    5.5292
    4.815    5.6135
    4.830    5.8557
    4.845    5.5292
    4.860    5.6661
    4.875    5.7504
    4.890    5.5292
    4.905    5.4976
    4.920    5.2870
    4.935    5.6451
    4.950    5.4976
    4.965    5.4450
    4.980    5.7083
    4.995    5.8241
    5.010    5.7083
    5.025    5.7609
    5.040    5.7504
    5.055    5.8978
    5.070    6.2033
    5.085    6.0769
    5.100    6.3296
    5.115    5.9926
    5.130    6.0769
    5.145    6.4244
    5.160    6.2349
    5.175    6.0874
    5.190    6.5929
    5.205    6.5403
    5.220    6.4982
    5.235    6.5929
    5.250    6.5929
    5.265    6.7404
    5.280    6.9826
    5.295    7.5303
    5.310    7.0037
    5.325    6.8457
    5.340    7.1617
    5.355    7.2459
    5.370    7.6145
    5.385    7.5092
    5.400    7.5513
    5.415    7.2143
    5.430    7.4882
    5.445    7.6040
    5.460    8.1622
    5.475    7.9621
    5.490    7.7514
    5.505    7.7620
    5.520    7.8673
    5.535    7.7620
    5.550    7.5513
    5.565    7.8252
    5.580    7.2670
    5.595    7.6672
    5.610    7.7936
    5.625    7.1406
    5.640    7.3828
    5.655    7.4671
    5.670    7.1195
    5.685    7.2565
    5.700    7.4882
    5.715    6.8246
    5.730    6.4139
    5.745    6.7825
    5.760    6.4666
    5.775    6.5192
    5.790    6.2033
    5.805    5.9294
    5.820    6.4771
    5.835    6.4244
    5.850    6.1611
    5.865    6.3402
    5.880    5.7715
    5.895    6.0032
    5.910    6.0664
    5.925    6.1927
    5.940    6.1506
    5.955    5.7609
    5.970    5.9294
    5.985    5.8978
    6.000    6.1295
    6.015    5.8241
    6.030    5.9400
    6.045    5.5608
    6.060    5.2870
    6.075    5.3712
    6.090    5.5292
    6.105    5.6872
    6.120    5.0974
    6.135    5.2238
    6.150    5.6977
    6.165    5.7925
    6.180    5.2027
    6.195    5.2238
    6.210    5.2765
    6.225    5.5398
    6.240    5.1817
    6.255    5.3397
    6.270    5.3712
    6.285    5.4555
    6.300    5.7609
    6.315    5.7083
    6.330    5.3502
    6.345    5.4871
    6.360    5.5398
    6.375    5.1185
    6.390    5.3712
    6.405    5.2870
    6.420    5.3081
    6.435    5.1290
    6.450    5.2554
    6.465    5.1711
    6.480    5.3397
    6.495    5.3712
    6.510    4.9289
    6.525    4.9710
    6.540    4.8236
    6.555    4.6867
    6.570    5.0764
    6.585    5.1395
    6.600    4.8868
    6.615    4.8552
    6.630    4.9816
    6.645    5.0553
    6.660    4.9078
    6.675    5.0132
    6.690    5.2133
    6.705    5.1080
    6.720    5.0026
    6.735    5.0658
    6.750    4.9921
    6.765    5.0237
    6.780    4.9289
    6.795    4.9605
    6.810    4.9605
    6.825    4.8657
    6.840    4.6867
    6.855    4.7183
    6.870    4.7604
    6.885    4.8552
    6.900    4.4760
    6.915    4.5392
    6.930    4.7604
    6.945    4.6340
    6.960    4.8025
    6.975    4.8236
    6.990    4.5498
    7.005    4.8236
    7.020    4.6972
    7.035    4.5076
    7.050    4.8447
    7.065    4.4760
    7.080    4.5182
    7.095    4.6972
    7.110    4.6024
    7.125    4.6551
    7.140    4.6656
    7.155    4.6656
    7.170    4.4655
    7.185    4.1917
    7.200    4.3391
    7.215    4.2022
    7.230    4.2233
    7.245    4.4971
    7.260    4.3391
    7.275    4.2233
    7.290    4.3497
    7.305    4.1706
    7.320    4.4023
    7.335    4.1074
    7.350    4.3602
    7.365    4.2127
    7.380    4.2443
    7.395    3.9916
    7.410    4.0758
    7.425    4.0337
    7.440    4.1390
    7.455    4.4023
    7.470    4.2443
    7.485    4.4339
    7.500    4.4444
    7.515    3.9916
    7.530    3.9600
    7.545    4.1180
    7.560    4.4339
    7.575    3.8968
    7.590    4.0232
    7.605    4.0442
    7.620    4.2654
    7.635    4.2865
    7.650    4.1706
    7.665    4.0653
    7.680    3.8441
    7.695    3.9179
    7.710    3.8441
    7.725    3.9494
    7.740    4.2759
    7.755    4.2549
    7.770    4.0653
    7.785    4.1390
    7.800    3.9810
    7.815    4.3075
    7.830    4.1285
    7.845    3.8652
    7.860    4.1917
    7.875    3.9179
    7.890    3.8125
    7.905    3.9179
    7.920    3.9916
    7.935    3.8125
    7.950    3.6230
    7.965    3.5492
    7.980    3.6335
    7.995    3.8757
    8.010    4.1180
    8.025    3.9810
    8.040    3.8757
    8.055    3.7388
    8.070    3.7704
    8.085    3.6756
    8.100    3.8757
    8.115    3.7809
    8.130    3.8336
    8.145    3.8757
    8.160    3.8757
    8.175    3.5808
    8.190    3.6440
    8.205    3.6651
    8.220    3.6335
    8.235    3.6862
    8.250    3.8020
    8.265    3.7388
    8.280    3.4123
    8.295    3.1069
    8.310    3.9179
    8.325    3.5598
    8.340    3.8231
    8.355    3.6335
    8.370    3.5387
    8.385    3.6862
    8.400    3.5282
    8.415    3.3386
    8.430    3.3807
    8.445    3.4755
    8.460    3.6651
    8.475    3.5914
    8.490    3.4966
    8.505    3.5492
    8.520    3.6546
    8.535    3.4755
    8.550    3.5492
    8.565    3.6862
    8.580    3.1069
    8.595    3.4650
    8.610    3.3281
    8.625    3.3807
    8.640    3.4650
    8.655    3.5176
    8.670    3.8336
    8.685    3.7177
    8.700    3.5492
    8.715    3.4650
    8.730    3.4334
    8.745    3.7388
    8.760    3.5914
    8.775    3.3807
    8.790    3.3281
    8.805    3.5071
    8.820    3.2227
    8.835    3.4650
    8.850    3.6019
    8.865    3.4966
    8.880    3.6651
    8.895    3.3281
    8.910    3.5703
    8.925    3.5071
    8.940    3.2438
    8.955    3.2543
    8.970    3.4018
    8.985    3.4544
    9.000    3.6019
    9.015    3.2859
    9.030    3.6440
    9.045    3.5703
    9.060    3.3491
    9.075    3.4650
    9.090    3.4229
    9.105    3.2438
    9.120    3.3597
    9.135    3.7704
    9.150    3.8547
    9.165    3.3913
    9.180    3.5387
    9.195    3.6440
    9.210    3.3175
    9.225    3.6756
    9.240    3.6862
    9.255    3.5071
    9.270    3.4334
    9.285    3.7915
    9.300    3.6335
    9.315    3.3386
    9.330    3.2859
    9.345    3.5492
    9.360    3.3807
    9.375    3.5492
    9.390    3.5492
    9.405    3.3491
    9.420    3.3702
    9.435    3.6019
    9.450    3.6862
    9.465    3.7809
    9.480    3.3913
    9.495    3.5914
    9.510    3.2754
    9.525    3.5492
    9.540    3.7493
    9.555    3.4755
    9.570    3.6124
    9.585    3.6651
    9.600    3.6230
    9.615    3.6862
    9.630    3.3702
    9.645    3.5703
    9.660    3.7493
    9.675    3.3597
    9.690    3.5914
    9.705    3.3913
    9.720    3.7704
    9.735    3.6862
    9.750    3.4544
    9.765    3.6335
    9.780    3.5808
    9.795    3.7283
    9.810    3.3070
    9.825    3.4966
    9.840    3.3913
    9.855    3.3807
    9.870    3.4544
    9.885    3.2965
    9.900    3.2438
    9.915    3.2438
    9.930    3.7704
    9.945    3.5492
    9.960    3.2438
    9.975    3.4229
    9.990    3.4018
   10.005    3.5387
   10.020    3.4966
   10.035    3.2333
   10.050    3.3702
   10.065    3.6756
   10.080    3.4018
   10.095    3.5703
   10.110    3.6019
   10.125    3.4860
   10.140    3.5387
   10.155    3.7704
   10.170    3.5914
   10.185    3.4544
   10.200    3.7388
   10.215    3.8757
   10.230    3.5703
   10.245    3.4755
   10.260    3.5387
   10.275    3.7809
   10.290    3.6756
   10.305    3.6230
   10.320    3.7388
   10.335    3.4860
   10.350    3.5282
   10.365    3.4334
   10.380    3.6967
   10.395    3.7072
   10.410    3.6651
   10.425    3.7599
   10.440    3.7809
   10.455    3.6019
   10.470    3.4966
   10.485    3.5914
   10.500    3.6862
   10.515    3.3807
   10.530    3.4544
   10.545    3.4229
   10.560    3.4229
   10.575    3.5282
   10.590    3.9179
   10.605    3.5282
   10.620    3.5598
   10.635    3.2649
   10.650    3.4229
   10.665    3.5598
   10.680    3.8020
   10.695    3.4544
   10.710    3.8231
   10.725    3.7388
   10.740    3.7704
   10.755    3.7177
   10.770    3.8441
   10.785    3.7177
   10.800    3.4755
   10.815    3.6124
   10.830    3.1912
   10.845    3.5282
   10.860    3.4966
   10.875    3.5387
   10.890    3.5492
   10.905    3.6546
   10.920    3.4334
   10.935    3.8231
   10.950    3.9179
   10.965    3.4334
   10.980    3.8336
   10.995    3.7915
   11.010    3.7704
   11.025    4.0232
   11.040    3.9073
   11.055    3.7809
   11.070    3.7599
   11.085    3.8441
   11.100    3.9179
   11.115    3.8863
   11.130    3.6124
   11.145    3.6862
   11.160    3.8336
   11.175    3.7072
   11.190    3.6019
   11.205    3.7599
   11.220    3.5282
   11.235    3.6651
   11.250    3.6651
   11.265    3.6124
   11.280    3.6124
   11.295    3.8336
   11.310    3.6546
   11.325    3.5598
   11.340    3.7915
   11.355    3.5703
   11.370    3.8547
   11.385    3.9810
   11.400    3.5176
   11.415    3.7177
   11.430    3.4966
   11.445    3.6862
   11.460    3.8125
   11.475    3.6124
   11.490    3.3702
   11.505    3.4966
   11.520    3.6335
   11.535    3.2649
   11.550    3.4229
   11.565    3.8020
   11.580    3.4755
   11.595    3.5808
   11.610    3.6967
   11.625    3.6862
   11.640    3.5071
   11.655    3.7599
   11.670    3.8863
   11.685    3.5914
   11.700    3.6440
   11.715    3.9179
   11.730    3.8652
   11.745    3.6862
   11.760    3.6124
   11.775    3.6651
   11.790    3.6124
   11.805    3.5598
   11.820    3.6651
   11.835    3.5387
   11.850    3.6756
   11.865    3.4860
   11.880    3.4439
   11.895    3.6230
   11.910    3.6862
   11.925    3.3175
   11.940    3.4123
   11.955    3.2649
   11.970    3.3070
   11.985    3.5176
   12.000    3.4860
   12.015    3.7388
   12.030    3.5703
   12.045    3.5282
   12.060    3.5808
   12.075    3.4439
   12.090    3.5176
   12.105    3.3597
   12.120    3.4334
   12.135    3.3807
   12.150    3.2649
   12.165    3.5176
   12.180    3.3175
   12.195    3.1069
   12.210    3.4334
   12.225    3.5492
   12.240    3.5282
   12.255    3.5282
   12.270    3.4439
   12.285    3.6124
   12.300    3.4123
   12.315    3.1806
   12.330    3.1385
   12.345    3.3281
   12.360    3.5492
   12.375    3.5598
   12.390    3.4123
   12.405    3.2649
   12.420    3.2438
   12.435    3.3491
   12.450    3.3807
   12.465    3.4544
   12.480    3.6019
   12.495    3.5071
   12.510    3.6651
   12.525    3.5598
   12.540    3.1912
   12.555    3.5703
   12.570    3.2649
   12.585    3.0332
   12.600    3.2649
   12.615    3.4544
   12.630    3.3702
   12.645    3.3913
   12.660    3.2017
   12.675    3.1806
   12.690    3.2438
   12.705    3.4229
   12.720    3.2227
   12.735    3.1596
   12.750    3.5176
   12.765    3.4650
   12.780    3.4966
   12.795    3.7177
   12.810    3.4755
   12.825    3.1385
   12.840    3.0542
   12.855    3.0753
   12.870    3.4755
   12.885    3.6019
   12.900    3.3281
   12.915    3.5071
   12.930    3.1385
   12.945    3.2543
   12.960    3.4439
   12.975    3.4439
   12.990    3.5071
   13.005    3.3070
   13.020    3.2438
   13.035    3.0437
   13.050    3.4439
   13.065    3.3702
   13.080    3.1385
   13.095    3.2754
   13.110    3.2122
   13.125    3.4123
   13.140    3.4334
   13.155    3.4860
   13.170    3.3597
   13.185    3.4018
   13.200    3.3070
   13.215    3.1701
   13.230    3.3807
   13.245    3.3491
   13.260    3.2965
   13.275    3.4544
   13.290    3.4018
   13.305    3.3913
   13.320    2.9805
   13.335    3.3386
   13.350    3.2438
   13.365    3.0648
   13.380    3.0437
   13.395    3.4334
   13.410    3.3807
   13.425    3.2965
   13.440    3.1490
   13.455    3.2543
   13.470    3.4544
   13.485    3.4018
   13.500    3.5598
   13.515    3.1174
   13.530    3.3913
   13.545    3.3807
   13.560    3.3807
   13.575    3.4123
   13.590    3.2754
   13.605    3.1596
   13.620    3.4755
   13.635    3.4334
   13.650    3.3175
   13.665    3.4229
   13.680    3.4650
   13.695    3.4334
   13.710    3.4860
   13.725    3.3913
   13.740    3.3281
   13.755    3.5703
   13.770    3.3281
   13.785    3.2227
   13.800    3.3070
   13.815    3.3597
   13.830    3.4439
   13.845    3.3597
   13.860    3.3597
   13.875    3.4544
   13.890    3.3702
   13.905    3.3386
   13.920    3.2017
   13.935    3.4123
   13.950    3.3807
   13.965    3.5071
   13.980    3.4123
   13.995    3.3491
   14.010    3.3702
   14.025    3.4966
   14.040    3.4650
   14.055    3.3386
   14.070    3.6230
   14.085    3.3491
   14.100    3.5492
   14.115    3.3807
   14.130    3.5071
   14.145    3.3913
   14.160    3.2543
   14.175    3.4439
   14.190    3.6124
   14.205    3.4860
   14.220    3.4123
   14.235    3.4123
   14.250    3.5598
   14.265    3.4860
   14.280    3.5282
   14.295    3.7283
   14.310    3.5282
   14.325    3.6546
   14.340    3.5492
   14.355    3.5492
   14.370    3.8652
   14.385    3.8757
   14.400    3.7388
   14.415    3.7915
   14.430    3.7283
   14.445    3.5071
   14.460    3.5176
   14.475    3.6230
   14.490    3.5914
   14.505    3.7072
   14.520    3.5492
   14.535    3.5808
   14.550    3.6335
   14.565    3.4966
   14.580    3.4966
   14.595    3.8231
   14.610    3.8652
   14.625    3.5071
   14.640    3.6756
   14.655    3.6335
   14.670    3.5598
   14.685    3.4123
   14.700    3.6862
   14.715    3.3491
   14.730    3.5071
   14.745    3.1596
   14.760    3.2754
   14.775    3.3702
   14.790    3.3491
   14.805    3.5703
   14.820    3.4860
   14.835    3.4544
   14.850    3.3175
   14.865    3.7493
   14.880    3.4439
   14.895    3.0542
   14.910    3.1490
   14.925    3.3281
   14.940    3.4755
   14.955    3.3913
   14.970    3.7072
   14.985    3.6019
   15.000    3.3175
   15.015    3.1069
   15.030    3.2754
   15.045    3.5071
   15.060    3.1280
   15.075    3.0858
   15.090    3.3175
   15.105    3.2649
   15.120    3.2965
   15.135    3.3597
   15.150    3.2438
   15.165    2.9279
   15.180    3.0226
   15.195    3.0964
   15.210    3.3281
   15.225    3.3070
   15.240    3.0121
   15.255    3.1806
   15.270    3.4439
   15.285    3.3386
   15.300    3.3491
   15.315    3.2438
   15.330    3.2017
   15.345    3.6756
   15.360    3.3070
   15.375    3.1912
   15.390    3.2649
   15.405    3.1596
   15.420    3.2333
   15.435    3.2227
   15.450    3.2017
   15.465    3.3807
   15.480    3.1280
   15.495    3.2438
   15.510    3.1490
   15.525    3.2227
   15.540    3.1174
   15.555    3.1806
   15.570    3.2754
   15.585    3.1069
   15.600    3.0332
   15.615    3.0648
   15.630    3.2227
   15.645    3.2965
   15.660    3.1174
   15.675    3.1174
   15.690    3.1280
   15.705    3.1490
   15.720    3.2227
   15.735    3.2438
   15.750    3.0648
   15.765    3.3807
   15.780    3.4334
   15.795    3.4123
   15.810    3.3491
   15.825    3.3386
   15.840    3.2122
   15.855    3.2859
   15.870    3.3070
   15.885    2.9068
   15.900    3.1596
   15.915    3.3807
   15.930    3.2859
   15.945    3.2649
   15.960    3.1701
   15.975    2.9805
   15.990    3.1280
   16.005    3.0753
   16.020    3.5703
   16.035    3.3491
   16.050    3.1069
   16.065    3.3807
   16.080    3.0858
   16.095    3.2333
   16.110    3.7177
   16.125    3.4439
   16.140    3.6019
   16.155    3.4439
   16.170    3.1385
   16.185    3.3070
   16.200    3.1806
   16.215    3.3386
   16.230    3.4860
   16.245    3.0648
   16.260    3.0964
   16.275    3.2543
   16.290    3.5387
   16.305    3.5387
   16.320    3.1280
   16.335    3.0858
   16.350    3.6440
   16.365    3.3702
   16.380    3.3175
   16.395    3.3070
   16.410    3.2333
   16.425    3.2649
   16.440    3.3491
   16.455    3.2122
   16.470    3.1912
   16.485    3.0648
   16.500    3.0332
   16.515    3.3913
   16.530    3.3175
   16.545    3.4650
   16.560    3.2754
   16.575    3.1912
   16.590    3.1280
   16.605    3.1280
   16.620    3.3175
   16.635    3.2859
   16.650    2.9805
   16.665    3.0016
   16.680    3.4229
   16.695    3.4439
   16.710    3.2017
   16.725    3.2438
   16.740    3.3070
   16.755    3.2859
   16.770    3.1912
   16.785    3.3070
   16.800    3.4544
   16.815    3.5176
   16.830    3.3702
   16.845    2.9595
   16.860    3.2122
   16.875    3.0437
   16.890    2.7909
   16.905    3.0437
   16.920    3.2333
   16.935    3.2965
   16.950    3.1385
   16.965    3.3386
   16.980    3.5598
   16.995    3.1806
   17.010    3.3491
   17.025    3.3070
   17.040    3.0858
   17.055    3.2227
   17.070    3.0016
   17.085    3.2859
   17.100    3.3491
   17.115    3.2965
   17.130    3.0542
   17.145    3.1596
   17.160    3.1490
   17.175    3.0648
   17.190    2.8331
   17.205    3.4018
   17.220    3.1490
   17.235    3.1806
   17.250    3.3491
   17.265    3.5598
   17.280    3.5703
   17.295    3.3702
   17.310    3.1596
   17.325    3.1069
   17.340    3.1806
   17.355    3.6230
   17.370    3.1174
   17.385    3.3281
   17.400    3.0542
   17.415    3.0753
   17.430    3.4544
   17.445    3.3491
   17.460    3.2965
   17.475    3.2859
   17.490    3.2227
   17.505    3.0542
   17.520    3.1596
   17.535    3.1912
   17.550    3.0858
   17.565    3.1490
   17.580    3.2227
   17.595    3.2438
   17.610    3.2333
   17.625    2.9489
   17.640    2.8857
   17.655    3.1912
   17.670    3.0542
   17.685    3.3807
   17.700    3.3913
   17.715    3.2859
   17.730    3.2543
   17.745    3.1806
   17.760    3.1701
   17.775    3.0121
   17.790    3.2859
   17.805    3.2333
   17.820    3.2649
   17.835    3.4439
   17.850    3.3491
   17.865    3.4123
   17.880    3.3913
   17.895    3.1385
   17.910    3.2649
   17.925    3.2859
   17.940    2.9805
   17.955    3.3491
   17.970    3.1280
   17.985    3.3386
   18.000    3.2333
   18.015    3.2649
   18.030    3.2017
   18.045    3.0858
   18.060    3.2122
   18.075    3.3281
   18.090    3.4860
   18.105    3.2017
   18.120    3.2122
   18.135    3.1596
   18.150    3.2227
   18.165    3.3386
   18.180    3.0016
   18.195    2.9910
   18.210    3.4755
   18.225    3.0437
   18.240    3.2438
   18.255    3.0437
   18.270    3.1174
   18.285    3.1069
   18.300    3.2122
   18.315    2.8752
   18.330    3.1385
   18.345    3.1806
   18.360    3.2227
   18.375    3.0332
   18.390    3.1490
   18.405    3.1385
   18.420    3.3070
   18.435    3.1174
   18.450    3.2859
   18.465    3.1069
   18.480    3.0648
   18.495    2.9068
   18.510    3.2859
   18.525    2.8752
   18.540    2.9489
   18.555    3.1912
   18.570    3.3597
   18.585    3.3597
   18.600    3.0437
   18.615    3.2122
   18.630    3.3175
   18.645    3.1385
   18.660    3.1701
   18.675    3.0964
   18.690    3.0121
   18.705    3.0648
   18.720    3.1280
   18.735    2.9489
   18.750    2.9805
   18.765    3.2227
   18.780    3.1912
   18.795    3.2017
   18.810    3.2227
   18.825    3.0964
   18.840    3.0964
   18.855    3.0437
   18.870    2.9805
   18.885    3.0016
   18.900    3.2754
   18.915    3.2438
   18.930    2.9489
   18.945    3.0964
   18.960    3.1596
   18.975    3.2333
   18.990    3.2965
   19.005    3.0542
   19.020    3.1701
   19.035    2.9279
   19.050    3.1490
   19.065    2.9805
   19.080    3.2543
   19.095    3.1385
   19.110    3.0437
   19.125    3.0016
   19.140    3.0542
   19.155    3.1806
   19.170    3.1596
   19.185    3.3807
   19.200    3.3491
   19.215    3.2649
   19.230    3.0016
   19.245    3.2122
   19.260    3.1701
   19.275    2.9068
   19.290    3.0542
   19.305    3.3175
   19.320    3.1385
   19.335    3.1069
   19.350    3.0226
   19.365    3.3491
   19.380    2.9595
   19.395    3.0121
   19.410    3.1385
   19.425    3.0437
   19.440    2.9910
   19.455    3.1490
   19.470    3.3491
   19.485    3.1596
   19.500    3.0648
   19.515    3.0858
   19.530    2.9068
   19.545    2.7278
   19.560    3.1701
   19.575    2.8752
   19.590    3.0016
   19.605    3.0753
   19.620    3.2017
   19.635    2.8436
   19.650    2.8857
   19.665    3.1912
   19.680    3.0332
   19.695    2.6435
   19.710    3.0648
   19.725    3.0753
   19.740    2.9805
   19.755    3.0648
   19.770    3.2859
   19.785    3.0437
   19.800    3.1912
   19.815    3.0964
   19.830    2.8647
   19.845    3.0753
   19.860    3.0121
   19.875    2.8647
   19.890    2.9489
   19.905    2.8647
   19.920    3.0437
   19.935    3.0437
   19.950    2.4539
   19.965    2.7699
   19.980    2.8120
   19.995    2.9910
   20.010    3.0858
   20.025    2.8015
   20.040    2.8963
   20.055    3.0542
   20.070    3.0437
   20.085    3.0858
   20.100    2.9805
   20.115    2.9595
   20.130    3.2859
   20.145    3.2754
   20.160    3.0437
   20.175    2.8225
   20.190    2.7067
   20.205    2.8225
   20.220    2.9068
   20.235    2.8225
   20.250    3.0121
   20.265    3.2017
   20.280    2.9068
   20.295    3.0016
   20.310    3.1174
   20.325    2.9489
   20.340    3.0016
   20.355    3.0332
   20.370    2.7909
   20.385    2.7383
   20.400    2.9910
   20.415    2.7804
   20.430    3.0332
   20.445    3.1490
   20.460    2.8015
   20.475    2.7067
   20.490    3.0437
   20.505    3.0542
   20.520    2.8436
   20.535    3.0332
   20.550    3.0858
   20.565    2.9173
   20.580    2.8752
   20.595    2.8541
   20.610    2.7909
   20.625    2.6646
   20.640    2.7699
   20.655    3.0226
   20.670    2.7804
   20.685    2.5487
   20.700    3.0226
   20.715    2.7488
   20.730    2.6751
   20.745    2.8120
   20.760    2.9384
   20.775    3.0542
   20.790    2.8541
   20.805    2.9805
   20.820    2.9068
   20.835    2.6540
   20.850    2.6435
   20.865    2.8541
   20.880    2.8120
   20.895    2.8331
   20.910    2.8225
   20.925    2.7488
   20.940    2.8857
   20.955    2.9595
   20.970    2.9805
   20.985    2.6751
   21.000    2.6435
   21.015    2.7593
   21.030    2.7172
   21.045    2.7383
   21.060    2.8331
   21.075    2.9279
   21.090    2.9805
   21.105    3.1490
   21.120    2.9805
   21.135    2.7488
   21.150    2.7172
   21.165    2.7699
   21.180    2.9384
   21.195    2.8436
   21.210    2.9489
   21.225    3.0016
   21.240    2.6224
   21.255    2.6224
   21.270    2.7488
   21.285    3.1280
   21.300    2.9173
   21.315    2.9384
   21.330    2.7067
   21.345    2.7383
   21.360    2.6224
   21.375    2.9068
   21.390    3.0542
   21.405    2.8015
   21.420    2.7278
   21.435    3.1596
   21.450    2.8015
   21.465    3.1596
   21.480    3.2122
   21.495    3.0332
   21.510    2.8857
   21.525    2.6751
   21.540    2.8015
   21.555    2.7593
   21.570    2.7699
   21.585    2.9173
   21.600    2.6751
   21.615    3.0753
   21.630    2.6224
   21.645    2.7172
   21.660    2.7909
   21.675    2.9173
   21.690    2.8647
   21.705    2.7909
   21.720    2.7804
   21.735    2.9595
   21.750    2.7909
   21.765    2.7067
   21.780    2.7488
   21.795    2.6540
   21.810    2.7067
   21.825    2.8225
   21.840    2.9279
   21.855    2.9910
   21.870    3.0542
   21.885    3.0542
   21.900    2.9910
   21.915    2.8647
   21.930    2.6435
   21.945    2.6646
   21.960    2.8015
   21.975    2.6540
   21.990    2.8225
   22.005    2.6856
   22.020    2.6751
   22.035    2.7172
   22.050    2.7067
   22.065    2.4961
   22.080    2.9700
   22.095    2.7383
   22.110    2.5171
   22.125    2.6540
   22.140    2.6330
   22.155    2.7383
   22.170    2.5803
   22.185    2.6119
   22.200    2.6751
   22.215    2.7383
   22.230    2.7278
   22.245    2.8436
   22.260    2.6962
   22.275    2.7488
   22.290    2.6435
   22.305    3.0437
   22.320    2.7067
   22.335    2.7172
   22.350    2.9489
   22.365    2.5382
   22.380    2.5066
   22.395    2.5382
   22.410    2.6435
   22.425    2.6014
   22.440    2.6962
   22.455    2.6751
   22.470    2.7593
   22.485    2.6856
   22.500    2.9173
   22.515    2.7593
   22.530    2.6435
   22.545    2.7383
   22.560    2.9384
   22.575    2.8647
   22.590    2.8015
   22.605    2.7804
   22.620    2.9384
   22.635    2.8015
   22.650    2.7172
   22.665    2.5698
   22.680    2.6646
   22.695    2.5171
   22.710    2.4223
   22.725    2.5698
   22.740    2.5487
   22.755    2.5382
   22.770    2.6014
   22.785    2.6646
   22.800    2.6014
   22.815    2.8120
   22.830    2.7593
   22.845    2.6224
   22.860    2.4329
   22.875    2.6014
   22.890    2.7383
   22.905    2.7488
   22.920    3.0016
   22.935    2.8120
   22.950    2.4855
   22.965    2.6540
   22.980    2.4645
   22.995    2.4118
   23.010    2.6646
   23.025    2.7172
   23.040    2.5908
   23.055    2.7172
   23.070    2.7593
   23.085    2.5487
   23.100    2.7699
   23.115    2.7172
   23.130    2.8015
   23.145    2.6014
   23.160    2.5698
   23.175    2.6751
   23.190    2.8225
   23.205    2.6435
   23.220    2.6014
   23.235    2.5803
   23.250    2.5276
   23.265    2.6014
   23.280    2.7383
   23.295    2.6751
   23.310    2.5803
   23.325    2.6962
   23.340    2.6646
   23.355    2.5803
   23.370    2.6540
   23.385    2.5592
   23.400    2.3486
   23.415    2.5382
   23.430    2.8541
   23.445    2.4961
   23.460    2.4118
   23.475    2.3697
   23.490    2.4855
   23.505    2.6119
   23.520    2.4855
   23.535    2.8120
   23.550    2.6962
   23.565    2.6119
   23.580    2.6540
   23.595    2.6856
   23.610    2.4434
   23.625    2.6119
   23.640    2.7699
   23.655    2.8015
   23.670    2.4645
   23.685    2.4118
   23.700    2.4329
   23.715    2.3802
   23.730    2.6540
   23.745    2.6962
   23.760    2.5803
   23.775    2.5592
   23.790    2.4645
   23.805    2.5698
   23.820    2.3907
   23.835    2.5276
   23.850    2.4013
   23.865    2.4855
   23.880    2.3486
   23.895    2.5803
   23.910    2.3907
   23.925    2.2854
   23.940    2.4118
   23.955    2.5698
   23.970    2.5171
   23.985    2.3907
   24.000    2.6540
   24.015    2.6646
   24.030    2.4329
   24.045    2.5276
   24.060    2.2959
   24.075    2.4434
   24.090    2.6856
   24.105    2.3802
   24.120    2.4750
   24.135    2.4013
   24.150    2.5698
   24.165    2.4961
   24.180    2.4118
   24.195    2.4013
   24.210    2.4961
   24.225    2.4855
   24.240    2.5487
   24.255    2.5803
   24.270    2.4223
   24.285    2.4855
   24.300    2.6119
   24.315    2.5698
   24.330    2.5382
   24.345    2.3802
   24.360    2.4434
   24.375    2.4961
   24.390    2.4223
   24.405    2.4434
   24.420    2.4855
   24.435    2.7278
   24.450    2.4645
   24.465    2.4013
   24.480    2.4539
   24.495    2.4750
   24.510    2.4539
   24.525    2.2117
   24.540    2.4434
   24.555    2.3697
   24.570    2.2854
   24.585    2.5066
   24.600    2.6751
   24.615    2.5698
   24.630    2.3697
   24.645    2.3591
   24.660    2.4539
   24.675    2.1590
   24.690    2.4118
   24.705    2.6962
   24.720    2.6224
   24.735    2.2433
   24.750    2.5382
   24.765    2.6224
   24.780    2.3381
   24.795    2.4434
   24.810    2.3170
   24.825    2.2012
   24.840    2.4961
   24.855    2.4539
   24.870    2.4961
   24.885    2.3697
   24.900    2.3591
   24.915    2.4013
   24.930    2.4329
   24.945    2.4855
   24.960    2.3591
   24.975    2.2433
   24.990    2.3486
   25.005    2.5276
   25.020    2.3381
   25.035    2.3170
   25.050    2.4329
   25.065    2.4118
   25.080    2.5066
   25.095    2.5487
   25.110    2.6540
   25.125    2.5171
   25.140    2.3065
   25.155    2.3381
   25.170    2.1064
   25.185    2.3065
   25.200    2.3697
   25.215    2.1906
   25.230    2.1169
   25.245    2.2538
   25.260    2.4118
   25.275    2.4539
   25.290    2.4329
   25.305    2.3381
   25.320    2.3381
   25.335    2.3802
   25.350    2.5382
   25.365    2.3907
   25.380    2.2328
   25.395    2.3486
   25.410    2.3802
   25.425    2.4750
   25.440    2.2643
   25.455    2.2854
   25.470    2.4118
   25.485    2.3802
   25.500    2.2749
   25.515    2.3065
   25.530    2.4118
   25.545    2.4013
   25.560    2.1485
   25.575    2.3381
   25.590    2.2959
   25.605    2.4434
   25.620    2.5066
   25.635    2.2328
   25.650    2.5908
   25.665    2.3697
   25.680    2.3486
   25.695    2.3697
   25.710    2.3170
   25.725    2.5276
   25.740    2.4539
   25.755    2.5592
   25.770    2.3065
   25.785    2.1274
   25.800    2.2012
   25.815    2.5803
   25.830    2.4539
   25.845    2.4329
   25.860    2.3065
   25.875    2.4118
   25.890    2.3907
   25.905    2.4961
   25.920    2.5592
   25.935    2.4855
   25.950    2.3170
   25.965    2.4329
   25.980    2.2222
   25.995    2.2538
   26.010    2.2328
   26.025    2.4750
   26.040    2.1590
   26.055    2.3275
   26.070    2.4539
   26.085    2.4539
   26.100    2.1274
   26.115    2.1801
   26.130    2.4750
   26.145    2.1696
   26.160    2.3170
   26.175    2.3275
   26.190    2.3591
   26.205    2.2012
   26.220    2.0958
   26.235    2.3065
   26.250    2.4118
   26.265    2.1590
   26.280    2.2538
   26.295    2.4539
   26.310    2.5171
   26.325    2.4855
   26.340    2.3907
   26.355    2.3907
   26.370    2.5908
   26.385    2.1906
   26.400    2.3591
   26.415    2.1696
   26.430    1.9379
   26.445    2.1380
   26.460    2.4013
   26.475    2.1590
   26.490    2.2749
   26.505    2.0853
   26.520    2.0958
   26.535    2.3275
   26.550    2.3065
   26.565    2.3275
   26.580    2.4118
   26.595    2.3697
   26.610    2.2012
   26.625    2.0326
   26.640    1.9589
   26.655    2.2749
   26.670    2.2749
   26.685    2.2749
   26.700    2.3381
   26.715    2.2328
   26.730    2.0642
   26.745    2.2643
   26.760    2.0221
   26.775    2.2012
   26.790    2.4645
   26.805    2.2012
   26.820    2.2328
   26.835    2.5592
   26.850    2.2433
   26.865    2.1485
   26.880    2.0116
   26.895    2.2959
   26.910    2.1590
   26.925    2.1696
   26.940    2.2117
   26.955    2.0853
   26.970    2.0958
   26.985    2.0537
   27.000    2.1064
   27.015    2.0326
   27.030    1.9905
   27.045    2.2222
   27.060    2.1064
   27.075    2.0221
   27.090    2.1696
   27.105    2.1380
   27.120    2.1169
   27.135    2.3697
   27.150    2.1485
   27.165    2.2433
   27.180    2.2222
   27.195    1.9168
   27.210    2.0221
   27.225    2.3381
   27.240    2.2222
   27.255    2.2538
   27.270    2.1696
   27.285    2.3591
   27.300    2.2854
   27.315    2.1590
   27.330    2.2328
   27.345    2.2959
   27.360    2.1590
   27.375    2.1169
   27.390    2.1064
   27.405    2.1485
   27.420    2.0221
   27.435    1.9695
   27.450    2.1485
   27.465    2.0958
   27.480    2.1906
   27.495    2.1485
   27.510    2.0537
   27.525    1.9273
   27.540    2.1590
   27.555    2.1169
   27.570    2.1169
   27.585    2.1274
   27.600    2.1169
   27.615    2.1380
   27.630    2.2538
   27.645    2.0221
   27.660    1.9695
   27.675    2.1274
   27.690    2.1801
   27.705    2.3802
   27.720    2.0853
   27.735    2.1696
   27.750    2.0642
   27.765    2.0537
   27.780    2.3065
   27.795    2.3275
   27.810    2.0432
   27.825    2.0642
   27.840    2.0642
   27.855    2.0537
   27.870    2.2012
   27.885    2.2012
   27.900    2.2117
   27.915    2.0011
   27.930    2.1169
   27.945    2.1169
   27.960    1.9168
   27.975    2.0011
   27.990    2.0011
   28.005    2.1064
   28.020    2.0011
   28.035    2.0958
   28.050    1.9695
   28.065    2.0642
   28.080    2.0116
   28.095    2.1590
   28.110    2.2433
   28.125    2.1590
   28.140    2.1169
   28.155    2.3697
   28.170    2.2854
   28.185    1.8852
   28.200    2.1590
   28.215    2.2538
   28.230    2.0221
   28.245    1.8957
   28.260    1.8431
   28.275    1.9168
   28.290    2.1169
   28.305    2.1906
   28.320    2.1485
   28.335    2.0326
   28.350    2.0537
   28.365    2.2117
   28.380    2.1064
   28.395    2.1064
   28.410    2.0853
   28.425    2.1380
   28.440    1.9589
   28.455    2.4118
   28.470    1.8852
   28.485    2.2854
   28.500    2.2328
   28.515    2.0748
   28.530    1.9800
   28.545    2.2012
   28.560    2.0221
   28.575    1.9800
   28.590    1.9905
   28.605    2.1064
   28.620    2.1169
   28.635    2.2854
   28.650    1.9379
   28.665    2.0958
   28.680    2.1169
   28.695    2.0221
   28.710    2.0116
   28.725    2.1380
   28.740    2.0748
   28.755    2.1485
   28.770    2.1906
   28.785    2.1590
   28.800    1.9695
   28.815    1.9063
   28.830    2.1274
   28.845    2.2328
   28.860    2.3486
   28.875    2.1064
   28.890    2.1380
   28.905    2.1064
   28.920    1.9905
   28.935    2.2222
   28.950    2.2854
   28.965    2.1169
   28.980    2.0116
   28.995    2.0432
   29.010    2.0432
   29.025    1.8852
   29.040    2.0221
   29.055    1.9063
   29.070    2.0432
   29.085    2.0011
   29.100    1.9484
   29.115    1.9063
   29.130    1.9589
   29.145    2.1169
   29.160    2.1064
   29.175    1.9273
   29.190    1.9484
   29.205    2.0642
   29.220    2.0221
   29.235    2.0537
   29.250    2.0221
   29.265    2.2012
   29.280    1.9273
   29.295    2.0537
   29.310    1.9273
   29.325    1.8536
   29.340    2.2538
   29.355    1.9273
   29.370    2.0116
   29.385    1.8009
   29.400    1.9379
   29.415    1.8115
   29.430    2.0221
   29.445    1.8747
   29.460    1.9168
   29.475    1.8220
   29.490    1.7483
   29.505    1.7378
   29.520    1.9905
   29.535    1.7167
   29.550    1.8009
   29.565    1.6219
   29.580    1.6430
   29.595    1.6430
   29.610    1.7799
   29.625    1.8536
   29.640    1.8957
   29.655    1.6851
   29.670    2.0642
   29.685    1.5798
   29.700    1.8115
   29.715    1.8852
   29.730    1.7272
   29.745    1.6851
   29.760    1.8536
   29.775    1.9484
   29.790    1.8325
   29.805    1.7378
   29.820    1.9379
   29.835    1.8747
   29.850    1.8115
   29.865    1.6956
   29.880    1.8747
   29.895    1.8325
   29.910    1.7694
   29.925    1.7799
   29.940    1.9063
   29.955    1.8536
   29.970    1.8957
   29.985    1.7062
   30.000    1.8536
   30.015    1.8536
   30.030    1.9063
   30.045    1.9273
   30.060    1.8431
   30.075    1.9168
   30.090    1.8115
   30.105    1.6219
   30.120    1.8115
   30.135    1.9063
   30.150    1.7272
   30.165    1.8009
   30.180    1.8325
   30.195    1.8431
   30.210    1.6219
   30.225    1.7062
   30.240    1.7904
   30.255    1.8220
   30.270    1.7904
   30.285    1.8220
   30.300    1.9379
   30.315    1.8431
   30.330    1.8747
   30.345    1.8431
   30.360    1.7694
   30.375    1.7062
   30.390    1.9484
   30.405    1.9379
   30.420    1.8957
   30.435    2.0011
   30.450    1.8641
   30.465    1.6956
   30.480    1.7694
   30.495    1.7378
   30.510    1.9168
   30.525    1.9484
   30.540    1.9905
   30.555    1.7483
   30.570    1.8747
   30.585    1.6219
   30.600    1.8220
   30.615    1.8431
   30.630    1.5798
   30.645    1.6535
   30.660    1.6746
   30.675    1.7588
   30.690    1.6851
   30.705    1.7272
   30.720    1.6746
   30.735    1.6219
   30.750    1.9589
   30.765    1.7167
   30.780    1.8852
   30.795    1.8747
   30.810    1.8536
   30.825    1.7694
   30.840    1.8325
   30.855    1.6956
   30.870    1.6956
   30.885    1.6746
   30.900    1.6851
   30.915    1.7588
   30.930    1.6535
   30.945    1.6114
   30.960    1.6746
   30.975    1.6640
   30.990    1.7062
   31.005    1.5692
   31.020    1.6956
   31.035    1.6324
   31.050    1.6851
   31.065    1.8325
   31.080    1.8641
   31.095    1.7062
   31.110    1.5482
   31.125    1.6535
   31.140    1.6640
   31.155    1.7167
   31.170    1.6956
   31.185    1.6219
   31.200    1.5587
   31.215    1.6219
   31.230    1.6535
   31.245    1.6008
   31.260    1.5798
   31.275    1.5061
   31.290    1.6430
   31.305    1.7272
   31.320    1.6219
   31.335    1.6114
   31.350    1.6008
   31.365    1.8536
   31.380    1.8115
   31.395    1.7378
   31.410    1.5271
   31.425    1.6640
   31.440    1.5166
   31.455    1.5903
   31.470    1.5166
   31.485    1.7378
   31.500    1.9168
   31.515    1.5271
   31.530    1.6430
   31.545    1.7694
   31.560    1.6746
   31.575    1.6008
   31.590    1.6640
   31.605    1.5903
   31.620    1.4745
   31.635    1.5903
   31.650    1.5587
   31.665    1.5271
   31.680    1.4955
   31.695    1.6114
   31.710    1.7483
   31.725    1.5798
   31.740    1.6008
   31.755    1.4955
   31.770    1.5482
   31.785    1.4534
   31.800    1.5166
   31.815    1.6114
   31.830    1.5482
   31.845    1.5377
   31.860    1.4429
   31.875    1.4113
   31.890    1.6219
   31.905    1.3691
   31.920    1.6851
   31.935    1.6324
   31.950    1.6430
   31.965    1.4534
   31.980    1.5482
   31.995    1.7272
   32.010    1.6114
   32.025    1.4534
   32.040    1.5798
   32.055    1.5377
   32.070    1.5377
   32.085    1.6851
   32.100    1.4429
   32.115    1.6746
   32.130    1.6746
   32.145    1.4955
   32.160    1.5482
   32.175    1.7167
   32.190    1.6956
   32.205    1.5377
   32.220    1.5903
   32.235    1.5377
   32.250    1.5482
   32.265    1.5692
   32.280    1.3586
   32.295    1.6008
   32.310    1.5798
   32.325    1.7588
   32.340    1.5482
   32.355    1.5166
   32.370    1.5692
   32.385    1.5271
   32.400    1.6324
   32.415    1.6114
   32.430    1.5692
   32.445    1.4007
   32.460    1.4323
   32.475    1.3165
   32.490    1.3902
   32.505    1.4639
   32.520    1.7378
   32.535    1.7378
   32.550    1.3270
   32.565    1.5377
   32.580    1.6324
   32.595    1.5903
   32.610    1.6324
   32.625    1.4429
   32.640    1.4955
   32.655    1.4955
   32.670    1.4745
   32.685    1.5798
   32.700    1.6430
   32.715    1.4534
   32.730    1.6746
   32.745    1.5271
   32.760    1.5061
   32.775    1.6324
   32.790    1.5587
   32.805    1.4639
   32.820    1.4113
   32.835    1.5587
   32.850    1.5166
   32.865    1.5377
   32.880    1.5271
   32.895    1.4113
   32.910    1.4007
   32.925    1.3060
   32.940    1.3165
   32.955    1.4218
   32.970    1.4745
   32.985    1.3691
   33.000    1.4534
   33.015    1.4113
   33.030    1.3270
   33.045    1.3586
   33.060    1.4218
   33.075    1.3902
   33.090    1.5271
   33.105    1.4745
   33.120    1.4323
   33.135    1.3270
   33.150    1.4007
   33.165    1.3691
   33.180    1.5587
   33.195    1.3797
   33.210    1.4323
   33.225    1.4218
   33.240    1.4218
   33.255    1.6114
   33.270    1.5061
   33.285    1.4955
   33.300    1.5903
   33.315    1.5587
   33.330    1.3060
   33.345    1.3586
   33.360    1.6640
   33.375    1.5166
   33.390    1.4850
   33.405    1.2744
   33.420    1.3797
   33.435    1.4323
   33.450    1.3586
   33.465    1.4429
   33.480    1.5482
   33.495    1.5587
   33.510    1.4955
   33.525    1.6114
   33.540    1.4218
   33.555    1.4323
   33.570    1.5166
   33.585    1.5271
   33.600    1.3165
   33.615    1.2533
   33.630    1.4323
   33.645    1.4955
   33.660    1.4113
   33.675    1.4850
   33.690    1.4429
   33.705    1.5271
   33.720    1.4218
   33.735    1.5377
   33.750    1.3586
   33.765    1.3586
   33.780    1.6008
   33.795    1.4850
   33.810    1.5061
   33.825    1.5061
   33.840    1.5482
   33.855    1.5061
   33.870    1.7588
   33.885    1.6956
   33.900    1.5377
   33.915    1.4323
   33.930    1.5166
   33.945    1.3375
   33.960    1.3797
   33.975    1.3902
   33.990    1.4429
   34.005    1.3481
   34.020    1.5061
   34.035    1.4850
   34.050    1.3691
   34.065    1.4113
   34.080    1.3797
   34.095    1.4429
   34.110    1.4534
   34.125    1.5377
   34.140    1.4534
   34.155    1.3902
   34.170    1.4639
   34.185    1.4639
   34.200    1.4323
   34.215    1.4955
   34.230    1.3375
   34.245    1.7062
   34.260    1.7799
   34.275    1.4850
   34.290    1.4639
   34.305    1.4639
   34.320    1.4113
   34.335    1.4218
   34.350    1.4850
   34.365    1.4429
   34.380    1.4218
   34.395    1.3902
   34.410    1.4534
   34.425    1.4323
   34.440    1.3165
   34.455    1.2217
   34.470    1.4218
   34.485    1.5692
   34.500    1.3797
   34.515    1.2744
   34.530    1.3165
   34.545    1.5061
   34.560    1.5692
   34.575    1.5482
   34.590    1.3902
   34.605    1.4218
   34.620    1.5166
   34.635    1.5482
   34.650    1.5482
   34.665    1.3270
   34.680    1.3691
   34.695    1.2849
   34.710    1.4218
   34.725    1.3060
   34.740    1.4639
   34.755    1.4534
   34.770    1.5798
   34.785    1.4323
   34.800    1.3797
   34.815    1.3586
   34.830    1.5166
   34.845    1.3902
   34.860    1.4007
   34.875    1.4218
   34.890    1.3797
   34.905    1.3902
   34.920    1.4955
   34.935    1.5271
   34.950    1.6114
   34.965    1.4218
   34.980    1.5061
   34.995    1.5166
   35.010    1.3481
   35.025    1.2638
   35.040    1.4007
   35.055    1.3586
   35.070    1.3691
   35.085    1.4113
   35.100    1.2112
   35.115    1.3586
   35.130    1.3586
   35.145    1.3375
   35.160    1.3691
   35.175    1.3586
   35.190    1.2744
   35.205    1.3586
   35.220    1.3060
   35.235    1.1796
   35.250    1.3481
   35.265    1.4218
   35.280    1.4218
   35.295    1.4113
   35.310    1.4218
   35.325    1.4850
   35.340    1.4429
   35.355    1.4534
   35.370    1.2954
   35.385    1.4323
   35.400    1.3270
   35.415    1.2954
   35.430    1.2322
   35.445    1.3270
   35.460    1.3586
   35.475    1.3060
   35.490    1.4534
   35.505    1.4955
   35.520    1.3902
   35.535    1.3902
   35.550    1.3060
   35.565    1.4323
   35.580    1.3270
   35.595    1.4429
   35.610    1.3797
   35.625    1.4113
   35.640    1.6219
   35.655    1.3270
   35.670    1.4429
   35.685    1.4429
   35.700    1.5166
   35.715    1.4955
   35.730    1.4113
   35.745    1.5377
   35.760    1.4639
   35.775    1.4007
   35.790    1.3060
   35.805    1.3270
   35.820    1.3481
   35.835    1.3586
   35.850    1.5692
   35.865    1.4007
   35.880    1.4429
   35.895    1.4429
   35.910    1.2849
   35.925    1.4113
   35.940    1.6008
   35.955    1.3375
   35.970    1.3375
   35.985    1.2322
   36.000    1.3902
   36.015    1.4113
   36.030    1.2428
   36.045    1.3797
   36.060    1.1796
   36.075    1.4429
   36.090    1.3375
   36.105    1.3375
   36.120    1.3375
   36.135    1.4113
   36.150    1.5798
   36.165    1.3691
   36.180    1.3481
   36.195    1.3165
   36.210    1.2638
   36.225    1.3481
   36.240    1.2849
   36.255    1.4850
   36.270    1.3270
   36.285    1.2112
   36.300    1.3586
   36.315    1.4955
   36.330    1.1690
   36.345    1.2849
   36.360    1.4850
   36.375    1.5061
   36.390    1.2744
   36.405    1.4007
   36.420    1.3797
   36.435    1.4113
   36.450    1.5692
   36.465    1.5166
   36.480    1.3797
   36.495    1.4429
   36.510    1.3481
   36.525    1.4955
   36.540    1.4850
   36.555    1.2217
   36.570    1.1585
   36.585    1.3691
   36.600    1.3691
   36.615    1.5482
   36.630    1.4850
   36.645    1.3691
   36.660    1.4113
   36.675    1.3797
   36.690    1.2638
   36.705    1.4218
   36.720    1.3375
   36.735    1.2533
   36.750    1.2744
   36.765    1.2954
   36.780    1.3902
   36.795    1.2849
   36.810    1.3481
   36.825    1.4113
   36.840    1.4218
   36.855    1.3270
   36.870    1.3586
   36.885    1.2217
   36.900    1.2533
   36.915    1.4323
   36.930    1.2744
   36.945    1.2954
   36.960    1.5377
   36.975    1.2217
   36.990    1.2112
   37.005    1.0742
   37.020    1.2217
   37.035    1.3060
   37.050    1.2954
   37.065    1.2638
   37.080    1.3270
   37.095    1.4323
   37.110    1.5482
   37.125    1.4323
   37.140    1.3902
   37.155    1.3691
   37.170    1.4534
   37.185    1.4323
   37.200    1.4534
   37.215    1.3270
   37.230    1.4429
   37.245    1.2217
   37.260    1.4955
   37.275    1.4218
   37.290    1.1480
   37.305    1.3586
   37.320    1.4639
   37.335    1.3902
   37.350    1.2638
   37.365    1.2112
   37.380    1.3375
   37.395    1.4007
   37.410    1.4007
   37.425    1.2428
   37.440    1.4534
   37.455    1.3797
   37.470    1.3691
   37.485    1.3165
   37.500    1.3270
   37.515    1.4007
   37.530    1.2428
   37.545    1.3060
   37.560    1.3060
   37.575    1.4429
   37.590    1.3902
   37.605    1.2428
   37.620    1.1164
   37.635    1.4639
   37.650    1.5166
   37.665    1.3375
   37.680    1.4218
   37.695    1.3902
   37.710    1.3691
   37.725    1.3375
   37.740    1.3797
   37.755    1.3375
   37.770    1.2533
   37.785    1.2638
   37.800    1.2217
   37.815    1.2849
   37.830    1.4955
   37.845    1.3375
   37.860    1.4007
   37.875    1.2849
   37.890    1.4745
   37.905    1.3060
   37.920    1.3586
   37.935    1.3060
   37.950    1.3375
   37.965    1.4218
   37.980    1.4850
   37.995    1.3481
   38.010    1.2006
   38.025    1.4007
   38.040    1.4218
   38.055    1.1480
   38.070    1.1901
   38.085    1.2006
   38.100    1.3481
   38.115    1.2533
   38.130    1.2112
   38.145    1.2533
   38.160    1.3481
   38.175    1.4113
   38.190    1.2954
   38.205    1.3481
   38.220    1.4007
   38.235    1.3481
   38.250    1.2217
   38.265    1.2638
   38.280    1.2322
   38.295    1.3481
   38.310    1.2533
   38.325    1.2533
   38.340    1.2744
   38.355    1.2533
   38.370    1.1585
   38.385    1.4218
   38.400    1.3165
   38.415    1.1796
   38.430    1.3691
   38.445    1.0427
   38.460    1.1585
   38.475    1.4429
   38.490    1.3060
   38.505    1.3060
   38.520    1.2322
   38.535    1.2322
   38.550    1.2428
   38.565    1.4955
   38.580    1.4113
   38.595    1.3481
   38.610    1.4007
   38.625    1.4639
   38.640    1.2533
   38.655    1.3586
   38.670    1.4850
   38.685    1.3060
   38.700    1.2428
   38.715    1.1374
   38.730    1.2954
   38.745    1.2533
   38.760    1.3586
   38.775    1.2217
   38.790    1.2428
   38.805    1.2217
   38.820    1.2322
   38.835    1.3902
   38.850    1.3691
   38.865    1.3060
   38.880    1.2217
   38.895    1.4113
   38.910    1.1796
   38.925    1.1796
   38.940    1.2217
   38.955    1.3586
   38.970    1.2533
   38.985    1.2638
   39.000    1.1164
   39.015    1.3060
   39.030    1.3375
   39.045    1.2428
   39.060    1.4113
   39.075    1.3481
   39.090    1.3586
   39.105    1.3481
   39.120    1.2006
   39.135    1.2217
   39.150    1.2322
   39.165    1.2954
   39.180    1.3060
   39.195    1.1901
   39.210    1.1374
   39.225    1.2322
   39.240    1.3481
   39.255    1.4007
   39.270    1.3060
   39.285    1.3165
   39.300    1.3691
   39.315    1.1901
   39.330    1.3586
   39.345    1.3481
   39.360    1.4323
   39.375    1.2217
   39.390    1.1796
   39.405    1.4323
   39.420    1.4850
   39.435    1.3797
   39.450    1.2744
   39.465    1.2744
   39.480    1.2428
   39.495    1.2006
   39.510    1.3270
   39.525    1.1901
   39.540    1.3691
   39.555    1.3270
   39.570    1.1901
   39.585    1.2849
   39.600    1.3375
   39.615    1.3270
   39.630    1.2428
   39.645    1.3691
   39.660    1.1269
   39.675    1.2112
   39.690    1.3797
   39.705    1.2744
   39.720    1.2533
   39.735    1.2428
   39.750    1.1796
   39.765    1.3586
   39.780    1.1690
   39.795    1.1690
   39.810    1.3060
   39.825    1.2533
   39.840    1.1480
   39.855    1.0216
   39.870    1.1374
   39.885    1.3902
   39.900    1.3902
   39.915    1.1480
   39.930    1.1690
   39.945    1.2638
   39.960    1.1374
   39.975    1.0848
   39.990    1.1585
