    1.500    9.9631
    1.515    9.8262
    1.530   10.0895
    1.545    9.9526
    1.560    9.5629
    1.575    9.7209
    1.590    9.7736
    1.605    9.4997
    1.620    9.3944
    1.635    8.9205
    1.650    9.3839
    1.665    9.4050
    1.680    9.0258
    1.695    8.7414
    1.710    9.0258
    1.725    8.8573
    1.740    8.1833
    1.755    8.5835
    1.770    8.6045
    1.785    8.3307
    1.800    8.5203
    1.815    8.3623
    1.830    8.2043
    1.845    8.3728
    1.860    8.3939
    1.875    7.9200
    1.890    8.3307
    1.905    8.2254
    1.920    7.9305
    1.935    7.9200
    1.950    7.3091
    1.965    7.3302
    1.980    7.8884
    1.995    7.5303
    2.010    7.5829
    2.025    7.5935
    2.040    7.3828
    2.055    7.2249
    2.070    7.6883
    2.085    7.8252
    2.100    7.4882
    2.115    7.3302
    2.130    7.0774
    2.145    6.8562
    2.160    6.9721
    2.175    6.7509
    2.190    7.1090
    2.205    7.0563
    2.220    6.8562
    2.235    7.0248
    2.250    6.9300
    2.265    6.9826
    2.280    6.6456
    2.295    6.7615
    2.310    6.8773
    2.325    6.8562
    2.340    6.4666
    2.355    6.7299
    2.370    6.4666
    2.385    6.2454
    2.400    6.4771
    2.415    6.4034
    2.430    6.4034
    2.445    6.5719
    2.460    6.8352
    2.475    6.3928
    2.490    6.1401
    2.505    6.1717
    2.520    6.2770
    2.535    6.4666
    2.550    6.6140
    2.565    6.2875
    2.580    6.2770
    2.595    6.4139
    2.610    6.0769
    2.625    6.2981
    2.640    6.4244
    2.655    6.4666
    2.670    6.9089
    2.685    6.3507
    2.700    6.0137
    2.715    6.1506
    2.730    6.1506
    2.745    5.8873
    2.760    5.9716
    2.775    6.2138
    2.790    5.9294
    2.805    6.4666
    2.820    5.9400
    2.835    5.9400
    2.850    5.9505
    2.865    5.9926
    2.880    5.6135
    2.895    5.5714
    2.910    6.3612
    2.925    6.2559
    2.940    6.4560
    2.955    6.2454
    2.970    5.7715
    2.985    5.8873
    3.000    5.8136
    3.015    6.1506
    3.030    6.0769
    3.045    6.2559
    3.060    5.8768
    3.075    6.0453
    3.090    6.1085
    3.105    6.0558
    3.120    6.0769
    3.135    5.9926
    3.150    5.9716
    3.165    5.9400
    3.180    5.4766
    3.195    5.6556
    3.210    6.1401
    3.225    6.1190
    3.240    6.0242
    3.255    6.4244
    3.270    5.9821
    3.285    6.1506
    3.300    5.8347
    3.315    6.0979
    3.330    6.4666
    3.345    6.9932
    3.360    6.4560
    3.375    6.4982
    3.390    6.4876
    3.405    6.7404
    3.420    6.5719
    3.435    6.4350
    3.450    6.7299
    3.465    6.6245
    3.480    6.7720
    3.495    7.4355
    3.510    7.0774
    3.525    7.9305
    3.540    7.4039
    3.555    7.5513
    3.570    7.5303
    3.585    8.0253
    3.600    8.3518
    3.615    8.6045
    3.630    8.0463
    3.645    8.5097
    3.660    8.9205
    3.675    9.4576
    3.690    9.8262
    3.705   10.4687
    3.720   11.0585
    3.735   11.2480
    3.750   12.4381
    3.765   13.1438
    3.780   13.2596
    3.795   13.4071
    3.810   15.2923
    3.825   16.9774
    3.840   17.6725
    3.855   18.7572
    3.870   19.4734
    3.885   18.3254
    3.900   16.5140
    3.915   14.7130
    3.930   12.4171
    3.945   10.3949
    3.960    8.7730
    3.975    7.7304
    3.990    7.1617
    4.005    6.7615
    4.020    6.6561
    4.035    6.4350
    4.050    6.3507
    4.065    6.0242
    4.080    5.8031
    4.095    6.2454
    4.110    6.4455
    4.125    6.1190
    4.140    5.9294
    4.155    6.0348
    4.170    5.7399
    4.185    6.0874
    4.200    5.9821
    4.215    5.7399
    4.230    5.8768
    4.245    5.9189
    4.260    6.1401
    4.275    6.2875
    4.290    5.9400
    4.305    6.0874
    4.320    6.0769
    4.335    5.9926
    4.350    5.8031
    4.365    5.6556
    4.380    5.9084
    4.395    6.3086
    4.410    6.2875
    4.425    6.0137
    4.440    5.9926
    4.455    6.0032
    4.470    5.7925
    4.485    5.7083
    4.500    5.9610
    4.515    5.8031
    4.530    5.8873
    4.545    5.8136
    4.560    5.8136
    4.575    5.9189
    4.590    5.8347
    4.605    5.6029
    4.620    5.9084
    4.635    5.8136
    4.650    5.6556
    4.665    5.8557
    4.680    6.1190
    4.695    5.8768
    4.710    5.5819
    4.725    5.5924
    4.740    5.8136
    4.755    5.8136
    4.770    5.7083
    4.785    5.8241
    4.800    5.6029
    4.815    5.9294
    4.830    5.9084
    4.845    6.2138
    4.860    6.2033
    4.875    6.2243
    4.890    6.1190
    4.905    6.1506
    4.920    6.1401
    4.935    5.8873
    4.950    6.0874
    4.965    6.2243
    4.980    6.0874
    4.995    6.0242
    5.010    6.3823
    5.025    6.6140
    5.040    6.6140
    5.055    7.0248
    5.070    6.5508
    5.085    6.8878
    5.100    6.9932
    5.115    6.6456
    5.130    6.6561
    5.145    6.8773
    5.160    7.1722
    5.175    7.4250
    5.190    7.4776
    5.205    7.4566
    5.220    7.4987
    5.235    7.5303
    5.250    7.4250
    5.265    7.5829
    5.280    7.6672
    5.295    8.4466
    5.310    8.5624
    5.325    8.9837
    5.340    8.5308
    5.355    9.1732
    5.370    9.0574
    5.385    9.2470
    5.400   10.1527
    5.415   10.7004
    5.430   11.2691
    5.445   11.3849
    5.460   11.7114
    5.475   12.1538
    5.490   12.6698
    5.505   13.0490
    5.520   11.9115
    5.535   10.5740
    5.550    8.9731
    5.565    9.0363
    5.580    9.3839
    5.595    8.1095
    5.610    8.1411
    5.625    7.6251
    5.640    7.7830
    5.655    7.8884
    5.670    7.6356
    5.685    7.5303
    5.700    7.5408
    5.715    7.8568
    5.730    7.4144
    5.745    6.9405
    5.760    6.8352
    5.775    7.1090
    5.790    6.9405
    5.805    6.8668
    5.820    6.9510
    5.835    6.7088
    5.850    6.7720
    5.865    6.5298
    5.880    6.5929
    5.895    6.8352
    5.910    6.2033
    5.925    6.7299
    5.940    6.4350
    5.955    6.7299
    5.970    6.0242
    5.985    5.8768
    6.000    6.2454
    6.015    6.1295
    6.030    6.1295
    6.045    6.1927
    6.060    5.6556
    6.075    5.9821
    6.090    6.0874
    6.105    5.9400
    6.120    5.9505
    6.135    5.8241
    6.150    6.0137
    6.165    6.2033
    6.180    5.8768
    6.195    5.6135
    6.210    5.8347
    6.225    5.7188
    6.240    5.6977
    6.255    5.7399
    6.270    5.4976
    6.285    5.6661
    6.300    5.5082
    6.315    5.6872
    6.330    5.7820
    6.345    5.6029
    6.360    5.8347
    6.375    5.5608
    6.390    5.2554
    6.405    5.5082
    6.420    5.4976
    6.435    5.0764
    6.450    5.4555
    6.465    5.5608
    6.480    5.6872
    6.495    5.6240
    6.510    5.7293
    6.525    5.8136
    6.540    5.7188
    6.555    5.8347
    6.570    5.8768
    6.585    5.5819
    6.600    6.0558
    6.615    5.8347
    6.630    6.0137
    6.645    5.8557
    6.660    6.2033
    6.675    6.4876
    6.690    6.3191
    6.705    6.6245
    6.720    6.4455
    6.735    6.9721
    6.750    7.2459
    6.765    7.1406
    6.780    6.4560
    6.795    6.0137
    6.810    6.0348
    6.825    5.6345
    6.840    5.2870
    6.855    5.1817
    6.870    5.2870
    6.885    5.0869
    6.900    5.0342
    6.915    5.1817
    6.930    5.4450
    6.945    5.2659
    6.960    4.8657
    6.975    5.2027
    6.990    4.8657
    7.005    4.7288
    7.020    4.7604
    7.035    4.7288
    7.050    4.9394
    7.065    4.8657
    7.080    5.1711
    7.095    5.2343
    7.110    4.9500
    7.125    4.9394
    7.140    4.9394
    7.155    4.9078
    7.170    4.8341
    7.185    4.4971
    7.200    4.4550
    7.215    4.4128
    7.230    4.9078
    7.245    4.8236
    7.260    4.8763
    7.275    4.7077
    7.290    4.6340
    7.305    4.6551
    7.320    4.6551
    7.335    4.5498
    7.350    4.5287
    7.365    4.3181
    7.380    4.6445
    7.395    4.4866
    7.410    4.8341
    7.425    4.6235
    7.440    4.3918
    7.455    4.8236
    7.470    4.4023
    7.485    4.5392
    7.500    4.6551
    7.515    4.5708
    7.530    4.4655
    7.545    4.4128
    7.560    4.5392
    7.575    4.1601
    7.590    4.6024
    7.605    4.6130
    7.620    4.5498
    7.635    4.6972
    7.650    4.4023
    7.665    4.4339
    7.680    4.7393
    7.695    4.9500
    7.710    4.8657
    7.725    4.7077
    7.740    4.9921
    7.755    5.2133
    7.770    5.4134
    7.785    5.3607
    7.800    5.3291
    7.815    4.9184
    7.830    4.6130
    7.845    4.8236
    7.860    4.5603
    7.875    4.4444
    7.890    4.5498
    7.905    4.3075
    7.920    4.2022
    7.935    4.2654
    7.950    3.8652
    7.965    4.2759
    7.980    4.3181
    7.995    4.5392
    8.010    4.1074
    8.025    4.0337
    8.040    4.0864
    8.055    4.0653
    8.070    4.1496
    8.085    4.0021
    8.100    4.0758
    8.115    4.0232
    8.130    3.8336
    8.145    4.0864
    8.160    4.1285
    8.175    4.0442
    8.190    4.1601
    8.205    3.8968
    8.220    4.2549
    8.235    4.2338
    8.250    4.3391
    8.265    4.1074
    8.280    3.9600
    8.295    3.8231
    8.310    4.2443
    8.325    4.1917
    8.340    4.2022
    8.355    4.0758
    8.370    4.1390
    8.385    4.0548
    8.400    3.7599
    8.415    4.2022
    8.430    3.8968
    8.445    3.7915
    8.460    3.9600
    8.475    4.2549
    8.490    4.2022
    8.505    4.2443
    8.520    4.0969
    8.535    3.8652
    8.550    4.1180
    8.565    3.7283
    8.580    3.5387
    8.595    3.8125
    8.610    4.0548
    8.625    4.0442
    8.640    3.8125
    8.655    3.7809
    8.670    3.8125
    8.685    4.0548
    8.700    4.0548
    8.715    4.0548
    8.730    3.4755
    8.745    3.7809
    8.760    4.2022
    8.775    4.0548
    8.790    3.8652
    8.805    3.7809
    8.820    3.7915
    8.835    3.7599
    8.850    3.7493
    8.865    3.9389
    8.880    3.9705
    8.895    3.8231
    8.910    3.9179
    8.925    3.8547
    8.940    4.0126
    8.955    3.8547
    8.970    3.5387
    8.985    3.5808
    9.000    3.9179
    9.015    4.0337
    9.030    4.0969
    9.045    3.8863
    9.060    3.7809
    9.075    3.6335
    9.090    3.5914
    9.105    3.6335
    9.120    3.6967
    9.135    3.6440
    9.150    3.8441
    9.165    4.1811
    9.180    3.7072
    9.195    3.7283
    9.210    3.6862
    9.225    3.9494
    9.240    3.8547
    9.255    4.0126
    9.270    3.9600
    9.285    3.7283
    9.300    3.9284
    9.315    3.8968
    9.330    3.9389
    9.345    3.9494
    9.360    3.9705
    9.375    4.0653
    9.390    4.2654
    9.405    4.4023
    9.420    4.3813
    9.435    4.5182
    9.450    4.7183
    9.465    4.9184
    9.480    5.0448
    9.495    5.3607
    9.510    5.5503
    9.525    5.5924
    9.540    5.8978
    9.555    6.0874
    9.570    5.7609
    9.585    5.2554
    9.600    4.9184
    9.615    4.7183
    9.630    4.6130
    9.645    4.1074
    9.660    4.2549
    9.675    3.8757
    9.690    3.8863
    9.705    4.0232
    9.720    4.0232
    9.735    4.0442
    9.750    3.6756
    9.765    3.8652
    9.780    3.6230
    9.795    3.8336
    9.810    3.7704
    9.825    3.8968
    9.840    3.6967
    9.855    3.7915
    9.870    3.6124
    9.885    3.8968
    9.900    3.6546
    9.915    3.8652
    9.930    3.9916
    9.945    4.0864
    9.960    3.7599
    9.975    3.6546
    9.990    3.9600
   10.005    4.0969
   10.020    4.1180
   10.035    3.7072
   10.050    3.9705
   10.065    4.2127
   10.080    3.7388
   10.095    3.9284
   10.110    3.8757
   10.125    4.2759
   10.140    4.1496
   10.155    4.0442
   10.170    4.1390
   10.185    4.0758
   10.200    4.1390
   10.215    4.1180
   10.230    3.8547
   10.245    4.0864
   10.260    4.3075
   10.275    4.3497
   10.290    4.3813
   10.305    4.8657
   10.320    4.8236
   10.335    4.8236
   10.350    4.3918
   10.365    4.2443
   10.380    4.2759
   10.395    3.8547
   10.410    3.9810
   10.425    3.8863
   10.440    3.8336
   10.455    3.8336
   10.470    3.7704
   10.485    3.7388
   10.500    3.9600
   10.515    3.9705
   10.530    3.7283
   10.545    4.0758
   10.560    3.5703
   10.575    3.9916
   10.590    3.4966
   10.605    3.8441
   10.620    3.8231
   10.635    3.9705
   10.650    4.0548
   10.665    4.0126
   10.680    4.1285
   10.695    3.8652
   10.710    3.6756
   10.725    3.7388
   10.740    4.2654
   10.755    3.7177
   10.770    3.8863
   10.785    4.1074
   10.800    3.9073
   10.815    4.1496
   10.830    3.9705
   10.845    3.7704
   10.860    4.4655
   10.875    4.4234
   10.890    4.0232
   10.905    3.8336
   10.920    4.2233
   10.935    3.9389
   10.950    4.3602
   10.965    4.3391
   10.980    4.2865
   10.995    4.4866
   11.010    4.7499
   11.025    4.5498
   11.040    4.6024
   11.055    4.6972
   11.070    4.2127
   11.085    4.4339
   11.100    4.0969
   11.115    4.3602
   11.130    4.3075
   11.145    4.3286
   11.160    4.2233
   11.175    4.0653
   11.190    3.9600
   11.205    3.8547
   11.220    4.1390
   11.235    4.1811
   11.250    3.7177
   11.265    4.1390
   11.280    4.1601
   11.295    4.1706
   11.310    3.8757
   11.325    3.9284
   11.340    4.1390
   11.355    4.2022
   11.370    4.0548
   11.385    4.0337
   11.400    3.9179
   11.415    3.7283
   11.430    3.7915
   11.445    3.7704
   11.460    3.5914
   11.475    4.1601
   11.490    3.8863
   11.505    4.0337
   11.520    4.1917
   11.535    3.8020
   11.550    3.9389
   11.565    3.8652
   11.580    3.8547
   11.595    3.7915
   11.610    3.9073
   11.625    4.4023
   11.640    4.1811
   11.655    4.1074
   11.670    4.4866
   11.685    4.4234
   11.700    4.7499
   11.715    4.5814
   11.730    4.5814
   11.745    4.5708
   11.760    4.4655
   11.775    4.2865
   11.790    4.3918
   11.805    4.2549
   11.820    3.8547
   11.835    3.6756
   11.850    3.5282
   11.865    3.7283
   11.880    3.7704
   11.895    3.8020
   11.910    4.0653
   11.925    3.9389
   11.940    3.8020
   11.955    3.8863
   11.970    3.9284
   11.985    3.9810
   12.000    4.0232
   12.015    3.6862
   12.030    3.8757
   12.045    4.2127
   12.060    4.0653
   12.075    3.7915
   12.090    3.7177
   12.105    3.7177
   12.120    3.9916
   12.135    3.7915
   12.150    3.6440
   12.165    3.7704
   12.180    3.7809
   12.195    3.7599
   12.210    3.3913
   12.225    3.8020
   12.240    3.6335
   12.255    3.7072
   12.270    3.8652
   12.285    3.7809
   12.300    3.9810
   12.315    3.7072
   12.330    3.6546
   12.345    4.0864
   12.360    3.8231
   12.375    3.8547
   12.390    3.5492
   12.405    3.8336
   12.420    3.9073
   12.435    3.8757
   12.450    3.8231
   12.465    3.8547
   12.480    3.8863
   12.495    3.7493
   12.510    3.5071
   12.525    3.8547
   12.540    4.0021
   12.555    3.8968
   12.570    3.9284
   12.585    3.8757
   12.600    3.7599
   12.615    3.9705
   12.630    3.7072
   12.645    3.5282
   12.660    3.7915
   12.675    3.6019
   12.690    3.7177
   12.705    3.8757
   12.720    3.5071
   12.735    3.7599
   12.750    3.5282
   12.765    3.8125
   12.780    3.7177
   12.795    3.7283
   12.810    3.6124
   12.825    3.6335
   12.840    3.9705
   12.855    3.6230
   12.870    3.7283
   12.885    3.9600
   12.900    3.9705
   12.915    3.8020
   12.930    3.9179
   12.945    4.4866
   12.960    4.3075
   12.975    3.9389
   12.990    4.0126
   13.005    3.9179
   13.020    3.7072
   13.035    3.5387
   13.050    3.5703
   13.065    3.6756
   13.080    3.6756
   13.095    3.7599
   13.110    3.5808
   13.125    3.7599
   13.140    3.7388
   13.155    3.5808
   13.170    3.6440
   13.185    3.7283
   13.200    3.2543
   13.215    3.3175
   13.230    3.6019
   13.245    3.8441
   13.260    3.9494
   13.275    3.4966
   13.290    3.6756
   13.305    3.5387
   13.320    3.9389
   13.335    3.2965
   13.350    3.6335
   13.365    3.6440
   13.380    3.4755
   13.395    3.3281
   13.410    3.5387
   13.425    3.6019
   13.440    3.8547
   13.455    3.7072
   13.470    3.5492
   13.485    3.5387
   13.500    4.1706
   13.515    3.8757
   13.530    3.6756
   13.545    3.8441
   13.560    3.9179
   13.575    3.6440
   13.590    3.7809
   13.605    3.3913
   13.620    3.3702
   13.635    3.5808
   13.650    3.8863
   13.665    3.6335
   13.680    3.3597
   13.695    3.4018
   13.710    3.3281
   13.725    3.3807
   13.740    3.4860
   13.755    3.6756
   13.770    3.8020
   13.785    3.4755
   13.800    3.3281
   13.815    3.6335
   13.830    3.6124
   13.845    3.9284
   13.860    3.8336
   13.875    3.6440
   13.890    3.4860
   13.905    3.7177
   13.920    3.7915
   13.935    3.6019
   13.950    3.8863
   13.965    3.6756
   13.980    3.6440
   13.995    3.7809
   14.010    3.9916
   14.025    3.8441
   14.040    3.9705
   14.055    4.5603
   14.070    4.3707
   14.085    4.3391
   14.100    4.1496
   14.115    3.7915
   14.130    3.8231
   14.145    4.0126
   14.160    4.1074
   14.175    4.2970
   14.190    4.2654
   14.205    4.0758
   14.220    3.9600
   14.235    4.0864
   14.250    3.7388
   14.265    3.7388
   14.280    4.1180
   14.295    3.7704
   14.310    4.0864
   14.325    4.1074
   14.340    4.0126
   14.355    3.8757
   14.370    4.2443
   14.385    3.9600
   14.400    3.7599
   14.415    3.8652
   14.430    3.9810
   14.445    4.0126
   14.460    3.9600
   14.475    3.8020
   14.490    3.8863
   14.505    3.9600
   14.520    4.1917
   14.535    3.9705
   14.550    3.6440
   14.565    3.9705
   14.580    3.6651
   14.595    4.1074
   14.610    3.8336
   14.625    3.6967
   14.640    3.8336
   14.655    3.9389
   14.670    4.0126
   14.685    3.7177
   14.700    3.9073
   14.715    4.0126
   14.730    4.0758
   14.745    3.6756
   14.760    3.8757
   14.775    3.5492
   14.790    3.5282
   14.805    3.5914
   14.820    3.6862
   14.835    3.7283
   14.850    4.0021
   14.865    3.9179
   14.880    3.8757
   14.895    3.7809
   14.910    4.1074
   14.925    3.7493
   14.940    3.7072
   14.955    3.7072
   14.970    3.7809
   14.985    3.6230
   15.000    3.9284
   15.015    3.8441
   15.030    3.7177
   15.045    3.5176
   15.060    3.6546
   15.075    3.7599
   15.090    3.9073
   15.105    3.9073
   15.120    3.8125
   15.135    3.8968
   15.150    3.6335
   15.165    3.7809
   15.180    3.6651
   15.195    3.5282
   15.210    3.4755
   15.225    3.5492
   15.240    3.7177
   15.255    3.4334
   15.270    3.4544
   15.285    3.4966
   15.300    3.4966
   15.315    3.6546
   15.330    3.4229
   15.345    3.5071
   15.360    3.3807
   15.375    3.5282
   15.390    3.2859
   15.405    3.3491
   15.420    3.3913
   15.435    3.6546
   15.450    3.8757
   15.465    3.6862
   15.480    3.6335
   15.495    3.7915
   15.510    3.6230
   15.525    3.5071
   15.540    3.8020
   15.555    3.2438
   15.570    3.3491
   15.585    3.5914
   15.600    3.7283
   15.615    3.6335
   15.630    3.6440
   15.645    3.2859
   15.660    3.3913
   15.675    3.3281
   15.690    3.7283
   15.705    3.5914
   15.720    3.3070
   15.735    3.7493
   15.750    3.6862
   15.765    3.5703
   15.780    3.7493
   15.795    3.5176
   15.810    3.5914
   15.825    3.5703
   15.840    3.3807
   15.855    3.7809
   15.870    3.6124
   15.885    3.6335
   15.900    3.5176
   15.915    3.4966
   15.930    3.8336
   15.945    3.8441
   15.960    3.6335
   15.975    3.8336
   15.990    3.8231
   16.005    3.3807
   16.020    3.5282
   16.035    3.4755
   16.050    3.3807
   16.065    3.6124
   16.080    3.8125
   16.095    3.6756
   16.110    3.6651
   16.125    3.8336
   16.140    3.7388
   16.155    3.6335
   16.170    3.6124
   16.185    3.4229
   16.200    3.7283
   16.215    3.6651
   16.230    3.4650
   16.245    3.4966
   16.260    3.6967
   16.275    3.8441
   16.290    3.7809
   16.305    3.5492
   16.320    3.6019
   16.335    3.5282
   16.350    3.5808
   16.365    3.7915
   16.380    3.7915
   16.395    3.3070
   16.410    3.5387
   16.425    3.4439
   16.440    3.5808
   16.455    3.5387
   16.470    3.5914
   16.485    3.6230
   16.500    3.8968
   16.515    3.6546
   16.530    3.6862
   16.545    3.7809
   16.560    3.7072
   16.575    3.6019
   16.590    3.8441
   16.605    3.8757
   16.620    3.4860
   16.635    3.2438
   16.650    3.7388
   16.665    3.5703
   16.680    3.4123
   16.695    3.4650
   16.710    3.6335
   16.725    3.4018
   16.740    3.4650
   16.755    3.6230
   16.770    3.4439
   16.785    3.5071
   16.800    3.4966
   16.815    3.4123
   16.830    3.6862
   16.845    3.3702
   16.860    3.7072
   16.875    3.6756
   16.890    3.4018
   16.905    3.5071
   16.920    3.3491
   16.935    3.2227
   16.950    3.4860
   16.965    3.4650
   16.980    3.5703
   16.995    3.7388
   17.010    3.6230
   17.025    3.7493
   17.040    3.9073
   17.055    3.7177
   17.070    3.5914
   17.085    3.7599
   17.100    3.6230
   17.115    3.6335
   17.130    3.8652
   17.145    3.5808
   17.160    3.6124
   17.175    3.3491
   17.190    3.5071
   17.205    3.2859
   17.220    3.4018
   17.235    3.4544
   17.250    3.9073
   17.265    3.5387
   17.280    3.5703
   17.295    3.6546
   17.310    3.6440
   17.325    3.3807
   17.340    3.5071
   17.355    3.5282
   17.370    3.6230
   17.385    3.5387
   17.400    3.6019
   17.415    3.6124
   17.430    3.4860
   17.445    3.4123
   17.460    3.5282
   17.475    3.5598
   17.490    3.6019
   17.505    3.4439
   17.520    3.6124
   17.535    3.5387
   17.550    3.7072
   17.565    3.7493
   17.580    3.7388
   17.595    3.5387
   17.610    3.6335
   17.625    3.3070
   17.640    3.7388
   17.655    3.4439
   17.670    3.4966
   17.685    3.5071
   17.700    3.4544
   17.715    3.5914
   17.730    3.2649
   17.745    3.2859
   17.760    3.2859
   17.775    3.2649
   17.790    3.5071
   17.805    3.6019
   17.820    3.3597
   17.835    3.5387
   17.850    3.5387
   17.865    3.6967
   17.880    3.6862
   17.895    3.8757
   17.910    3.5914
   17.925    3.4229
   17.940    3.3175
   17.955    3.6546
   17.970    3.7599
   17.985    3.4755
   18.000    3.5387
   18.015    3.4229
   18.030    3.4334
   18.045    3.4229
   18.060    3.5598
   18.075    3.3807
   18.090    3.3702
   18.105    3.5071
   18.120    3.5914
   18.135    3.3281
   18.150    3.3281
   18.165    3.3807
   18.180    3.6230
   18.195    3.7283
   18.210    3.5387
   18.225    3.6019
   18.240    3.7072
   18.255    3.5808
   18.270    3.5071
   18.285    3.7072
   18.300    4.0442
   18.315    3.6440
   18.330    3.6019
   18.345    3.6230
   18.360    3.3491
   18.375    3.2017
   18.390    3.5703
   18.405    3.6124
   18.420    4.0337
   18.435    3.6124
   18.450    3.4650
   18.465    3.5282
   18.480    3.5071
   18.495    3.4439
   18.510    3.6230
   18.525    3.5492
   18.540    3.4966
   18.555    3.7809
   18.570    3.4229
   18.585    3.6230
   18.600    3.3807
   18.615    3.1490
   18.630    3.2122
   18.645    3.4334
   18.660    3.5282
   18.675    3.3491
   18.690    3.4123
   18.705    3.2965
   18.720    3.6546
   18.735    3.8125
   18.750    3.6230
   18.765    3.2438
   18.780    3.5703
   18.795    3.3913
   18.810    3.3386
   18.825    3.5492
   18.840    3.3175
   18.855    3.6756
   18.870    3.8863
   18.885    3.3597
   18.900    3.6756
   18.915    3.5703
   18.930    3.4860
   18.945    3.4544
   18.960    3.4544
   18.975    3.4018
   18.990    3.5703
   19.005    3.4755
   19.020    3.3281
   19.035    3.2017
   19.050    3.4229
   19.065    3.5282
   19.080    3.5703
   19.095    3.4439
   19.110    3.4544
   19.125    3.4229
   19.140    3.2859
   19.155    3.3807
   19.170    3.3281
   19.185    3.4544
   19.200    3.2649
   19.215    3.2754
   19.230    3.3702
   19.245    3.4439
   19.260    3.4439
   19.275    3.3807
   19.290    3.1069
   19.305    3.2543
   19.320    3.6019
   19.335    3.5808
   19.350    3.3807
   19.365    3.3913
   19.380    3.2649
   19.395    3.5703
   19.410    3.4966
   19.425    3.1701
   19.440    3.4018
   19.455    3.0753
   19.470    3.1912
   19.485    3.5703
   19.500    3.4755
   19.515    3.4334
   19.530    3.1701
   19.545    3.4755
   19.560    3.1806
   19.575    3.5808
   19.590    3.2754
   19.605    3.5282
   19.620    3.5914
   19.635    3.8231
   19.650    3.6124
   19.665    3.3702
   19.680    3.1701
   19.695    3.0858
   19.710    3.1806
   19.725    3.1912
   19.740    3.5703
   19.755    3.5282
   19.770    3.3702
   19.785    3.6862
   19.800    3.0858
   19.815    2.9910
   19.830    3.1069
   19.845    3.1069
   19.860    3.2859
   19.875    3.2859
   19.890    3.2122
   19.905    3.3175
   19.920    3.1701
   19.935    3.2227
   19.950    3.3491
   19.965    3.4439
   19.980    3.2859
   19.995    3.3913
   20.010    3.5071
   20.025    3.5387
   20.040    3.4018
   20.055    3.1490
   20.070    3.3070
   20.085    3.0016
   20.100    2.9173
   20.115    3.2333
   20.130    3.1069
   20.145    3.2227
   20.160    3.2649
   20.175    3.5598
   20.190    3.2965
   20.205    3.3491
   20.220    3.4650
   20.235    3.4650
   20.250    3.0648
   20.265    3.1596
   20.280    3.2438
   20.295    3.3597
   20.310    3.4860
   20.325    3.4229
   20.340    3.2333
   20.355    3.2965
   20.370    3.4123
   20.385    3.2227
   20.400    3.3491
   20.415    3.3702
   20.430    3.1385
   20.445    3.1806
   20.460    3.2859
   20.475    3.4966
   20.490    3.3807
   20.505    3.2754
   20.520    3.4439
   20.535    3.3491
   20.550    3.0964
   20.565    3.1174
   20.580    3.5176
   20.595    3.2122
   20.610    3.3070
   20.625    3.5176
   20.640    3.6440
   20.655    3.2965
   20.670    3.1596
   20.685    2.9384
   20.700    3.1912
   20.715    3.3597
   20.730    3.1701
   20.745    3.1596
   20.760    3.1596
   20.775    3.1596
   20.790    3.0016
   20.805    3.0858
   20.820    3.2333
   20.835    3.0332
   20.850    3.4544
   20.865    3.2227
   20.880    3.0753
   20.895    3.1174
   20.910    3.2859
   20.925    2.9910
   20.940    3.2965
   20.955    3.1174
   20.970    3.3807
   20.985    3.3491
   21.000    3.2017
   21.015    3.1385
   21.030    3.0753
   21.045    3.2754
   21.060    3.4334
   21.075    3.2438
   21.090    3.2333
   21.105    3.2754
   21.120    3.2754
   21.135    3.1596
   21.150    3.3491
   21.165    3.0648
   21.180    3.1701
   21.195    3.1912
   21.210    3.1490
   21.225    3.2333
   21.240    2.9489
   21.255    3.0753
   21.270    3.0016
   21.285    3.1912
   21.300    3.0858
   21.315    3.0121
   21.330    3.0753
   21.345    3.0858
   21.360    3.1490
   21.375    3.1280
   21.390    3.3281
   21.405    3.2227
   21.420    3.2438
   21.435    3.1069
   21.450    3.2543
   21.465    3.2649
   21.480    3.4966
   21.495    3.5176
   21.510    3.3281
   21.525    3.3386
   21.540    3.2754
   21.555    3.2227
   21.570    3.2017
   21.585    3.0437
   21.600    3.4966
   21.615    3.2017
   21.630    3.0858
   21.645    3.2017
   21.660    3.0858
   21.675    3.0542
   21.690    2.9384
   21.705    2.9595
   21.720    3.1385
   21.735    2.9805
   21.750    3.2543
   21.765    3.2333
   21.780    3.5071
   21.795    3.4123
   21.810    3.2438
   21.825    3.2649
   21.840    3.1701
   21.855    3.2754
   21.870    3.0648
   21.885    3.0226
   21.900    3.1490
   21.915    3.0332
   21.930    3.0753
   21.945    3.1385
   21.960    3.0226
   21.975    3.0858
   21.990    3.2438
   22.005    2.9068
   22.020    3.1385
   22.035    3.0332
   22.050    3.0437
   22.065    2.7593
   22.080    3.0121
   22.095    2.9489
   22.110    3.5176
   22.125    3.2859
   22.140    3.2754
   22.155    3.4123
   22.170    3.2122
   22.185    3.1490
   22.200    3.3070
   22.215    2.9068
   22.230    3.0332
   22.245    3.2122
   22.260    3.1280
   22.275    3.0964
   22.290    3.2754
   22.305    3.1174
   22.320    3.0542
   22.335    3.1912
   22.350    3.2227
   22.365    3.2122
   22.380    3.3491
   22.395    3.3913
   22.410    3.0016
   22.425    3.1069
   22.440    3.2227
   22.455    3.2649
   22.470    3.1385
   22.485    3.2227
   22.500    2.8857
   22.515    3.1069
   22.530    3.4755
   22.545    3.2438
   22.560    3.3175
   22.575    3.2122
   22.590    3.3913
   22.605    3.2859
   22.620    3.4123
   22.635    3.2438
   22.650    2.9700
   22.665    3.0858
   22.680    3.0648
   22.695    3.1069
   22.710    3.1069
   22.725    3.1596
   22.740    3.1280
   22.755    3.1174
   22.770    2.9279
   22.785    3.1701
   22.800    2.9279
   22.815    3.3386
   22.830    3.3597
   22.845    3.2227
   22.860    3.1912
   22.875    3.4334
   22.890    3.5808
   22.905    3.3070
   22.920    3.1701
   22.935    3.1385
   22.950    3.1701
   22.965    2.9489
   22.980    2.9805
   22.995    2.9805
   23.010    3.2122
   23.025    2.9805
   23.040    2.8857
   23.055    3.2333
   23.070    3.0121
   23.085    3.1280
   23.100    3.0016
   23.115    3.2333
   23.130    2.9068
   23.145    3.2333
   23.160    3.2333
   23.175    2.7383
   23.190    3.1701
   23.205    2.9384
   23.220    3.1806
   23.235    3.3702
   23.250    3.1701
   23.265    2.8647
   23.280    2.9384
   23.295    3.2122
   23.310    3.1490
   23.325    2.9489
   23.340    2.9700
   23.355    2.9489
   23.370    2.8331
   23.385    2.7804
   23.400    2.6962
   23.415    2.6330
   23.430    2.9279
   23.445    3.0121
   23.460    3.0648
   23.475    3.0437
   23.490    3.1174
   23.505    2.8541
   23.520    2.8752
   23.535    3.0016
   23.550    2.8225
   23.565    2.8225
   23.580    2.8647
   23.595    2.7909
   23.610    2.8331
   23.625    2.8752
   23.640    2.6119
   23.655    2.8225
   23.670    2.8963
   23.685    2.8857
   23.700    2.8015
   23.715    2.8752
   23.730    2.7699
   23.745    2.7593
   23.760    2.8436
   23.775    3.0964
   23.790    3.1596
   23.805    2.8015
   23.820    2.8331
   23.835    2.7699
   23.850    2.7278
   23.865    3.0753
   23.880    2.9910
   23.895    3.0542
   23.910    2.7909
   23.925    2.8436
   23.940    2.6540
   23.955    2.6330
   23.970    2.7067
   23.985    2.7593
   24.000    2.6856
   24.015    2.7909
   24.030    2.8015
   24.045    2.8541
   24.060    2.8436
   24.075    2.6330
   24.090    2.6540
   24.105    2.7804
   24.120    2.6224
   24.135    2.8331
   24.150    2.9700
   24.165    2.8647
   24.180    2.7488
   24.195    2.8331
   24.210    2.9068
   24.225    2.7804
   24.240    2.6330
   24.255    2.7172
   24.270    2.7067
   24.285    2.8015
   24.300    2.7278
   24.315    2.6435
   24.330    2.8647
   24.345    2.8647
   24.360    2.7593
   24.375    2.8541
   24.390    2.9489
   24.405    2.8436
   24.420    2.6119
   24.435    2.7909
   24.450    2.6540
   24.465    2.5382
   24.480    2.8015
   24.495    2.8436
   24.510    2.8752
   24.525    3.0753
   24.540    2.7172
   24.555    2.5803
   24.570    2.6646
   24.585    2.7172
   24.600    2.8225
   24.615    2.4855
   24.630    2.6119
   24.645    2.7909
   24.660    2.9068
   24.675    2.5171
   24.690    2.6435
   24.705    3.1174
   24.720    2.9595
   24.735    2.7383
   24.750    2.6856
   24.765    2.6962
   24.780    2.8015
   24.795    2.7278
   24.810    2.7593
   24.825    2.8015
   24.840    2.9700
   24.855    2.6224
   24.870    2.6435
   24.885    2.5171
   24.900    2.7699
   24.915    2.8647
   24.930    2.7804
   24.945    2.9384
   24.960    2.9173
   24.975    2.6751
   24.990    2.6014
   25.005    2.6646
   25.020    3.0542
   25.035    2.6646
   25.050    2.6646
   25.065    2.6330
   25.080    2.7909
   25.095    2.8225
   25.110    2.5487
   25.125    2.7067
   25.140    2.7699
   25.155    2.6540
   25.170    2.7593
   25.185    2.6751
   25.200    2.6014
   25.215    2.7383
   25.230    2.8857
   25.245    2.7383
   25.260    2.7699
   25.275    2.8015
   25.290    3.0121
   25.305    2.7383
   25.320    2.6330
   25.335    2.6014
   25.350    2.7804
   25.365    2.6962
   25.380    2.4855
   25.395    2.5592
   25.410    2.5382
   25.425    2.6856
   25.440    2.8225
   25.455    2.6751
   25.470    2.6014
   25.485    2.5487
   25.500    2.7593
   25.515    2.5698
   25.530    2.8647
   25.545    2.8647
   25.560    2.7593
   25.575    2.7804
   25.590    2.6646
   25.605    2.3802
   25.620    2.5803
   25.635    2.7278
   25.650    2.6014
   25.665    2.8752
   25.680    2.7804
   25.695    2.7278
   25.710    2.7278
   25.725    2.5908
   25.740    2.7067
   25.755    2.5908
   25.770    2.8436
   25.785    3.0016
   25.800    2.7909
   25.815    2.9910
   25.830    2.6435
   25.845    3.0121
   25.860    2.9173
   25.875    2.6119
   25.890    2.6856
   25.905    2.5803
   25.920    2.7909
   25.935    2.7804
   25.950    2.6119
   25.965    2.3381
   25.980    2.4645
   25.995    2.3381
   26.010    2.6330
   26.025    2.8225
   26.040    2.7699
   26.055    2.8015
   26.070    2.4961
   26.085    3.0332
   26.100    2.5803
   26.115    2.5382
   26.130    2.6435
   26.145    2.6330
   26.160    2.6751
   26.175    2.3275
   26.190    2.6435
   26.205    2.6540
   26.220    2.6751
   26.235    2.5487
   26.250    2.4118
   26.265    2.5066
   26.280    2.6224
   26.295    2.7067
   26.310    2.5066
   26.325    2.6540
   26.340    2.5276
   26.355    2.4539
   26.370    2.6540
   26.385    2.6962
   26.400    2.6540
   26.415    2.7488
   26.430    2.8015
   26.445    2.6856
   26.460    2.4645
   26.475    2.6751
   26.490    2.6962
   26.505    2.4013
   26.520    2.7593
   26.535    2.5066
   26.550    2.4223
   26.565    2.5276
   26.580    2.5276
   26.595    2.8647
   26.610    2.7172
   26.625    2.3907
   26.640    2.6224
   26.655    2.6330
   26.670    2.6962
   26.685    2.4013
   26.700    2.5382
   26.715    2.6856
   26.730    2.4855
   26.745    2.4329
   26.760    2.5276
   26.775    2.5066
   26.790    2.5698
   26.805    2.3697
   26.820    2.1696
   26.835    2.4329
   26.850    2.6540
   26.865    2.8225
   26.880    2.9489
   26.895    2.7593
   26.910    2.5382
   26.925    2.8120
   26.940    2.6330
   26.955    2.6856
   26.970    2.3065
   26.985    2.5908
   27.000    2.8225
   27.015    2.6435
   27.030    2.6646
   27.045    2.8015
   27.060    2.5171
   27.075    2.5171
   27.090    2.6119
   27.105    2.4118
   27.120    2.4118
   27.135    2.6224
   27.150    2.2328
   27.165    2.2222
   27.180    2.6224
   27.195    2.3275
   27.210    2.5592
   27.225    2.4750
   27.240    2.4434
   27.255    2.4223
   27.270    2.5382
   27.285    2.5908
   27.300    2.5382
   27.315    2.4855
   27.330    2.5698
   27.345    2.3275
   27.360    2.4118
   27.375    2.4434
   27.390    2.4750
   27.405    2.2643
   27.420    2.6014
   27.435    2.6014
   27.450    2.3065
   27.465    2.2222
   27.480    2.4539
   27.495    2.4013
   27.510    2.3591
   27.525    2.5908
   27.540    2.5908
   27.555    2.4645
   27.570    2.6856
   27.585    2.6224
   27.600    2.4539
   27.615    2.4961
   27.630    2.4434
   27.645    2.5171
   27.660    2.4223
   27.675    2.5171
   27.690    2.6224
   27.705    2.3065
   27.720    2.3381
   27.735    2.5803
   27.750    2.4434
   27.765    2.3802
   27.780    2.3170
   27.795    2.4961
   27.810    2.2538
   27.825    2.0748
   27.840    2.4645
   27.855    2.2959
   27.870    2.3907
   27.885    2.4329
   27.900    2.3275
   27.915    2.3802
   27.930    2.4434
   27.945    2.4013
   27.960    2.3381
   27.975    2.3065
   27.990    2.5276
   28.005    2.4013
   28.020    2.5171
   28.035    2.6540
   28.050    2.2959
   28.065    2.2328
   28.080    2.3591
   28.095    2.2749
   28.110    2.3591
   28.125    2.3275
   28.140    2.3591
   28.155    2.3275
   28.170    2.5908
   28.185    2.4645
   28.200    2.2433
   28.215    2.1906
   28.230    2.3381
   28.245    2.4750
   28.260    2.2117
   28.275    2.2012
   28.290    2.4961
   28.305    2.4329
   28.320    2.4329
   28.335    2.3486
   28.350    2.4013
   28.365    2.4118
   28.380    2.5698
   28.395    2.4434
   28.410    2.4223
   28.425    2.6119
   28.440    2.2749
   28.455    2.6540
   28.470    2.5698
   28.485    2.3802
   28.500    2.4434
   28.515    2.3591
   28.530    2.4223
   28.545    2.3275
   28.560    2.3591
   28.575    2.3486
   28.590    2.3907
   28.605    2.4539
   28.620    2.2749
   28.635    2.2117
   28.650    2.3381
   28.665    2.5803
   28.680    2.3170
   28.695    2.4223
   28.710    2.3591
   28.725    2.1906
   28.740    2.3697
   28.755    2.4013
   28.770    2.4434
   28.785    2.5908
   28.800    2.3170
   28.815    2.2433
   28.830    2.2959
   28.845    2.2538
   28.860    2.6751
   28.875    2.5592
   28.890    2.3381
   28.905    2.3381
   28.920    2.2854
   28.935    2.3907
   28.950    2.4961
   28.965    2.4329
   28.980    2.4855
   28.995    2.5066
   29.010    2.3381
   29.025    2.3170
   29.040    2.1274
   29.055    2.3907
   29.070    2.2538
   29.085    2.3170
   29.100    2.4855
   29.115    2.6014
   29.130    2.4013
   29.145    2.3486
   29.160    2.5171
   29.175    2.2117
   29.190    2.2222
   29.205    2.3381
   29.220    2.6856
   29.235    2.6119
   29.250    2.5803
   29.265    2.4645
   29.280    2.4223
   29.295    2.2222
   29.310    2.2328
   29.325    2.4013
   29.340    2.3907
   29.355    2.1801
   29.370    2.0537
   29.385    2.1696
   29.400    2.0958
   29.415    2.2538
   29.430    2.2959
   29.445    2.3802
   29.460    2.1906
   29.475    2.0642
   29.490    2.1801
   29.505    2.4329
   29.520    2.2854
   29.535    2.2538
   29.550    2.2117
   29.565    2.1485
   29.580    1.9484
   29.595    1.9168
   29.610    2.0958
   29.625    2.0432
   29.640    1.8325
   29.655    1.9905
   29.670    2.1801
   29.685    2.0748
   29.700    2.0853
   29.715    2.2117
   29.730    2.2222
   29.745    2.1906
   29.760    2.1696
   29.775    2.2328
   29.790    2.2959
   29.805    2.2854
   29.820    2.4750
   29.835    2.2117
   29.850    2.1801
   29.865    2.1696
   29.880    2.2538
   29.895    2.0432
   29.910    2.1906
   29.925    2.1590
   29.940    1.9063
   29.955    2.0221
   29.970    1.9273
   29.985    2.2433
   30.000    2.2328
   30.015    2.2959
   30.030    2.5698
   30.045    2.4434
   30.060    2.3697
   30.075    2.0116
   30.090    2.0432
   30.105    1.9589
   30.120    2.0642
   30.135    1.8957
   30.150    2.1169
   30.165    2.0011
   30.180    2.0326
   30.195    2.0221
   30.210    2.2012
   30.225    2.0642
   30.240    2.1169
   30.255    2.0432
   30.270    2.1380
   30.285    2.1906
   30.300    2.0221
   30.315    2.1485
   30.330    2.1485
   30.345    2.2433
   30.360    2.0221
   30.375    1.9800
   30.390    2.0116
   30.405    2.1380
   30.420    2.0853
   30.435    1.9800
   30.450    2.0748
   30.465    2.1274
   30.480    2.1380
   30.495    2.2749
   30.510    2.0537
   30.525    2.1380
   30.540    2.0432
   30.555    2.0748
   30.570    1.9484
   30.585    1.9695
   30.600    2.0221
   30.615    1.9695
   30.630    1.9379
   30.645    1.9379
   30.660    2.0642
   30.675    2.1485
   30.690    2.0432
   30.705    2.2328
   30.720    2.1801
   30.735    1.9695
   30.750    2.1169
   30.765    2.0326
   30.780    1.9905
   30.795    1.9484
   30.810    1.9063
   30.825    2.0748
   30.840    1.9379
   30.855    1.9273
   30.870    2.1696
   30.885    2.0853
   30.900    1.8957
   30.915    2.1380
   30.930    2.1169
   30.945    2.0642
   30.960    2.1169
   30.975    2.2854
   30.990    1.9905
   31.005    1.7904
   31.020    1.8852
   31.035    1.8747
   31.050    1.7904
   31.065    2.0537
   31.080    2.0432
   31.095    1.9379
   31.110    1.7167
   31.125    1.9484
   31.140    1.9168
   31.155    1.7272
   31.170    1.9273
   31.185    2.2538
   31.200    1.9695
   31.215    1.8115
   31.230    2.0432
   31.245    1.9168
   31.260    1.9168
   31.275    2.0432
   31.290    1.9484
   31.305    1.7588
   31.320    2.0537
   31.335    2.0642
   31.350    1.7904
   31.365    1.8747
   31.380    1.9589
   31.395    1.9484
   31.410    2.1169
   31.425    2.0432
   31.440    1.8009
   31.455    2.0011
   31.470    1.9695
   31.485    1.9484
   31.500    1.7483
   31.515    1.7167
   31.530    1.6851
   31.545    1.7694
   31.560    1.9379
   31.575    1.8009
   31.590    2.1274
   31.605    2.1064
   31.620    1.9273
   31.635    1.9273
   31.650    2.0432
   31.665    2.0011
   31.680    1.9168
   31.695    1.8431
   31.710    2.0432
   31.725    1.7378
   31.740    1.8431
   31.755    1.9063
   31.770    1.9905
   31.785    1.8747
   31.800    1.8009
   31.815    2.0011
   31.830    1.8957
   31.845    1.7694
   31.860    1.8431
   31.875    1.8115
   31.890    2.0116
   31.905    1.7904
   31.920    1.7483
   31.935    1.8641
   31.950    1.7799
   31.965    1.7483
   31.980    1.7272
   31.995    1.7272
   32.010    1.7062
   32.025    1.8115
   32.040    1.9695
   32.055    1.7904
   32.070    1.8641
   32.085    1.8536
   32.100    1.9168
   32.115    1.8957
   32.130    1.9589
   32.145    1.8431
   32.160    1.7483
   32.175    1.8009
   32.190    1.6851
   32.205    2.0432
   32.220    2.0537
   32.235    1.8009
   32.250    1.6851
   32.265    1.5903
   32.280    1.7272
   32.295    1.7483
   32.310    1.7167
   32.325    1.7167
   32.340    1.7378
   32.355    1.8115
   32.370    1.8009
   32.385    1.8641
   32.400    1.6008
   32.415    1.9589
   32.430    1.7904
   32.445    1.9168
   32.460    1.7904
   32.475    1.7799
   32.490    1.8009
   32.505    1.7694
   32.520    1.6008
   32.535    1.8852
   32.550    1.9905
   32.565    1.7904
   32.580    1.6956
   32.595    1.8431
   32.610    1.8115
   32.625    1.8009
   32.640    1.7694
   32.655    1.8431
   32.670    1.7062
   32.685    1.7588
   32.700    1.8641
   32.715    1.7483
   32.730    1.7904
   32.745    1.5061
   32.760    1.8852
   32.775    1.8431
   32.790    1.6851
   32.805    1.8852
   32.820    1.8009
   32.835    2.0116
   32.850    1.8431
   32.865    1.9695
   32.880    1.9273
   32.895    1.9800
   32.910    1.8115
   32.925    1.6956
   32.940    1.7378
   32.955    1.8115
   32.970    1.6956
   32.985    1.7272
   33.000    1.6114
   33.015    1.8536
   33.030    1.8852
   33.045    1.8115
   33.060    1.8325
   33.075    1.7272
   33.090    1.6640
   33.105    1.5798
   33.120    1.4850
   33.135    1.5271
   33.150    1.6219
   33.165    1.9063
   33.180    1.8852
   33.195    1.8431
   33.210    1.7904
   33.225    1.7272
   33.240    1.7799
   33.255    1.7904
   33.270    1.6956
   33.285    1.8009
   33.300    1.8009
   33.315    1.9695
   33.330    1.8957
   33.345    1.7904
   33.360    1.6746
   33.375    1.9273
   33.390    1.8852
   33.405    1.8220
   33.420    1.8957
   33.435    1.9589
   33.450    1.6219
   33.465    1.7378
   33.480    1.8641
   33.495    1.7378
   33.510    1.6219
   33.525    1.5692
   33.540    1.6535
   33.555    1.7272
   33.570    1.6535
   33.585    1.9168
   33.600    1.9273
   33.615    1.6430
   33.630    1.7483
   33.645    1.8747
   33.660    1.7378
   33.675    1.7167
   33.690    1.6535
   33.705    1.6746
   33.720    1.7167
   33.735    1.7062
   33.750    1.8325
   33.765    1.9168
   33.780    1.7378
   33.795    1.7167
   33.810    1.8957
   33.825    1.9273
   33.840    1.8115
   33.855    1.6430
   33.870    1.7167
   33.885    1.7167
   33.900    1.6008
   33.915    1.7272
   33.930    1.6324
   33.945    1.6851
   33.960    2.0537
   33.975    1.6746
   33.990    1.8115
   34.005    1.7588
   34.020    1.7483
   34.035    1.6956
   34.050    1.6640
   34.065    1.6219
   34.080    1.6851
   34.095    1.5903
   34.110    1.8536
   34.125    1.6746
   34.140    1.7588
   34.155    1.9168
   34.170    1.6746
   34.185    1.6324
   34.200    1.5377
   34.215    1.6114
   34.230    1.7799
   34.245    1.6956
   34.260    1.6535
   34.275    1.7272
   34.290    1.6324
   34.305    1.7167
   34.320    1.6114
   34.335    1.6008
   34.350    1.6114
   34.365    1.5903
   34.380    1.6640
   34.395    1.6956
   34.410    1.7378
   34.425    1.6324
   34.440    1.8115
   34.455    1.6219
   34.470    1.6640
   34.485    1.7378
   34.500    1.7588
   34.515    1.6430
   34.530    1.6430
   34.545    1.7694
   34.560    1.6956
   34.575    1.7799
   34.590    1.7272
   34.605    1.5903
   34.620    1.6008
   34.635    1.7694
   34.650    1.4323
   34.665    1.6640
   34.680    1.7799
   34.695    1.6640
   34.710    1.6324
   34.725    1.7378
   34.740    1.5061
   34.755    1.4850
   34.770    1.5798
   34.785    1.6008
   34.800    1.6640
   34.815    1.7167
   34.830    1.7272
   34.845    1.7799
   34.860    1.8009
   34.875    1.8957
   34.890    1.5377
   34.905    1.6219
   34.920    1.5692
   34.935    1.7483
   34.950    1.8009
   34.965    1.6851
   34.980    1.7378
   34.995    1.7588
   35.010    1.8957
   35.025    1.6324
   35.040    1.6535
   35.055    1.8431
   35.070    1.7694
   35.085    1.6114
   35.100    1.6640
   35.115    1.5587
   35.130    1.7272
   35.145    1.6114
   35.160    1.6640
   35.175    1.8957
   35.190    1.6746
   35.205    1.7799
   35.220    1.6535
   35.235    1.6640
   35.250    1.6851
   35.265    1.4323
   35.280    1.6008
   35.295    1.5903
   35.310    1.5692
   35.325    1.6324
   35.340    1.7904
   35.355    1.6430
   35.370    1.7483
   35.385    1.6430
   35.400    1.6851
   35.415    1.8115
   35.430    1.7483
   35.445    1.6746
   35.460    1.5587
   35.475    1.7904
   35.490    1.7483
   35.505    1.7694
   35.520    1.8220
   35.535    1.6324
   35.550    1.6535
   35.565    1.6956
   35.580    1.6746
   35.595    1.3481
   35.610    1.6114
   35.625    1.5271
   35.640    1.7694
   35.655    1.7904
   35.670    1.7167
   35.685    1.6640
   35.700    1.6324
   35.715    1.6851
   35.730    2.0011
   35.745    1.7378
   35.760    1.8009
   35.775    1.9063
   35.790    1.6956
   35.805    1.6956
   35.820    1.7378
   35.835    1.6746
   35.850    1.6851
   35.865    1.7272
   35.880    1.7694
   35.895    1.5482
   35.910    1.6219
   35.925    1.6956
   35.940    1.7062
   35.955    1.5798
   35.970    1.7378
   35.985    1.8747
   36.000    1.6114
   36.015    1.7588
   36.030    1.9800
   36.045    1.6640
   36.060    1.6851
   36.075    1.6746
   36.090    1.7588
   36.105    1.8115
   36.120    1.5903
   36.135    1.6851
   36.150    1.6008
   36.165    1.6851
   36.180    1.6219
   36.195    1.8957
   36.210    1.7062
   36.225    1.6324
   36.240    1.5798
   36.255    1.6324
   36.270    1.6324
   36.285    1.6851
   36.300    1.7694
   36.315    1.8957
   36.330    1.8747
   36.345    1.6640
   36.360    1.6851
   36.375    1.7062
   36.390    1.7904
   36.405    1.6114
   36.420    1.6324
   36.435    1.4534
   36.450    1.6430
   36.465    1.6430
   36.480    1.6324
   36.495    1.6956
   36.510    1.7799
   36.525    1.6324
   36.540    1.7799
   36.555    1.5798
   36.570    1.6324
   36.585    1.9273
   36.600    1.8009
   36.615    1.4113
   36.630    1.4850
   36.645    1.6851
   36.660    1.7483
   36.675    1.6008
   36.690    1.7378
   36.705    1.7167
   36.720    1.7588
   36.735    1.7062
   36.750    1.8009
   36.765    1.6324
   36.780    1.5166
   36.795    1.5587
   36.810    1.7799
   36.825    1.8747
   36.840    1.9063
   36.855    1.6851
   36.870    1.5903
   36.885    1.4745
   36.900    1.5903
   36.915    1.7272
   36.930    1.7694
   36.945    1.8431
   36.960    1.5271
   36.975    1.5377
   36.990    1.6956
   37.005    1.6851
   37.020    1.6746
   37.035    1.6324
   37.050    1.6535
   37.065    1.6219
   37.080    1.5903
   37.095    1.4534
   37.110    1.6956
   37.125    1.5166
   37.140    1.6535
   37.155    1.6430
   37.170    1.4113
   37.185    1.5271
   37.200    1.6851
   37.215    1.6746
   37.230    1.7167
   37.245    1.6640
   37.260    1.6114
   37.275    1.7483
   37.290    1.8641
   37.305    1.7167
   37.320    1.7694
   37.335    1.6851
   37.350    1.6851
   37.365    1.6114
   37.380    1.5798
   37.395    1.6008
   37.410    1.5482
   37.425    1.4850
   37.440    1.4534
   37.455    1.4323
   37.470    1.3902
   37.485    1.5903
   37.500    1.7799
   37.515    1.6324
   37.530    1.6430
   37.545    1.7062
   37.560    1.6640
   37.575    1.5903
   37.590    1.5271
   37.605    1.4429
   37.620    1.3586
   37.635    1.4429
   37.650    1.7272
   37.665    1.4955
   37.680    1.5903
   37.695    1.6746
   37.710    1.6430
   37.725    1.5587
   37.740    1.4745
   37.755    1.6746
   37.770    1.5587
   37.785    1.5587
   37.800    1.7167
   37.815    1.5166
   37.830    1.5798
   37.845    1.5377
   37.860    1.6851
   37.875    1.5482
   37.890    1.6114
   37.905    1.6746
   37.920    1.5166
   37.935    1.7588
   37.950    1.5903
   37.965    1.4429
   37.980    1.5061
   37.995    1.6746
   38.010    1.6114
   38.025    1.6746
   38.040    1.7378
   38.055    1.3691
   38.070    1.5482
   38.085    1.7272
   38.100    1.5166
   38.115    1.6008
   38.130    1.6008
   38.145    1.6114
   38.160    1.6851
   38.175    1.7588
   38.190    1.6851
   38.205    1.5903
   38.220    1.5271
   38.235    1.4745
   38.250    1.6008
   38.265    1.5798
   38.280    1.4850
   38.295    1.5587
   38.310    1.6430
   38.325    1.5587
   38.340    1.6430
   38.355    1.5061
   38.370    1.4218
   38.385    1.4534
   38.400    1.4745
   38.415    1.5166
   38.430    1.4955
   38.445    1.4534
   38.460    1.5798
   38.475    1.4534
   38.490    1.4218
   38.505    1.5798
   38.520    1.4323
   38.535    1.5482
   38.550    1.6219
   38.565    1.5166
   38.580    1.4955
   38.595    1.5903
   38.610    1.5482
   38.625    1.4850
   38.640    1.7167
   38.655    1.7272
   38.670    1.8220
   38.685    1.3797
   38.700    1.6114
   38.715    1.5166
   38.730    1.4639
   38.745    1.5166
   38.760    1.4955
   38.775    1.6430
   38.790    1.6219
   38.805    1.8009
   38.820    1.5061
   38.835    1.5798
   38.850    1.4745
   38.865    1.6114
   38.880    1.6114
   38.895    1.7272
   38.910    1.6114
   38.925    1.6430
   38.940    1.6219
   38.955    1.3902
   38.970    1.4745
   38.985    1.5692
   39.000    1.7272
   39.015    1.7588
   39.030    1.6746
   39.045    1.4955
   39.060    1.4955
   39.075    1.5166
   39.090    1.4007
   39.105    1.4429
   39.120    1.5377
   39.135    1.7167
   39.150    1.6746
   39.165    1.5061
   39.180    1.6956
   39.195    1.5061
   39.210    1.5482
   39.225    1.5587
   39.240    1.5798
   39.255    1.4955
   39.270    1.4850
   39.285    1.5377
   39.300    1.5061
   39.315    1.5798
   39.330    1.5587
   39.345    1.6219
   39.360    1.6430
   39.375    1.5798
   39.390    1.5377
   39.405    1.6535
   39.420    1.5377
   39.435    1.4007
   39.450    1.5587
   39.465    1.6114
   39.480    1.6640
   39.495    1.5482
   39.510    1.4745
   39.525    1.7378
   39.540    1.3691
   39.555    1.4007
   39.570    1.6430
   39.585    1.5692
   39.600    1.6746
   39.615    1.6324
   39.630    1.6746
   39.645    1.5587
   39.660    1.5377
   39.675    1.5377
   39.690    1.4745
   39.705    1.4534
   39.720    1.4745
   39.735    1.4955
   39.750    1.5482
   39.765    1.5166
   39.780    1.3902
   39.795    1.4429
   39.810    1.5377
   39.825    1.4955
   39.840    1.6851
   39.855    1.7272
   39.870    1.6430
   39.885    1.3797
   39.900    1.3165
   39.915    1.6535
   39.930    1.7272
   39.945    1.7167
   39.960    1.5692
   39.975    1.6430
   39.990    1.5377
